# I(Q)
#Q (1/A)        I (1/cm)        dI (1/cm)       dQ (1/A)
1.794781E-02	7.866047E+00	5.832681E-01	3.211078E-03
1.863530E-02	8.142618E+00	2.568011E-01	3.239509E-03
1.934913E-02	8.755911E+00	1.717967E-01	3.273288E-03
2.009029E-02	8.658287E+00	1.108050E-01	3.308806E-03
2.085985E-02	8.503660E+00	9.410229E-02	3.377556E-03
2.165889E-02	8.325754E+00	8.042653E-02	3.423522E-03
2.248853E-02	8.094068E+00	7.047886E-02	3.441902E-03
2.334995E-02	7.818345E+00	5.763612E-02	3.502750E-03
2.424437E-02	7.577227E+00	4.983021E-02	3.538497E-03
2.517305E-02	7.369599E+00	4.397138E-02	3.570290E-03
2.613730E-02	7.114490E+00	3.885086E-02	3.596252E-03
2.713849E-02	6.919096E+00	3.460671E-02	3.640987E-03
2.817802E-02	6.673932E+00	3.072410E-02	3.677530E-03
2.925738E-02	6.517390E+00	2.832355E-02	3.673000E-03
3.037808E-02	6.324961E+00	2.498967E-02	3.744497E-03
3.154171E-02	6.183137E+00	2.327696E-02	3.766571E-03
3.274992E-02	5.994695E+00	2.087193E-02	3.809127E-03
3.400440E-02	5.855056E+00	1.952476E-02	3.834154E-03
3.530693E-02	5.685068E+00	1.778420E-02	3.852169E-03
3.665936E-02	5.485275E+00	1.598612E-02	3.905938E-03
3.806360E-02	5.387149E+00	1.511263E-02	3.921734E-03
3.952162E-02	5.224704E+00	1.394354E-02	3.961812E-03
4.103549E-02	5.046242E+00	1.291932E-02	4.005544E-03
4.260736E-02	4.928201E+00	1.205108E-02	4.023629E-03
4.423943E-02	4.778261E+00	1.124430E-02	4.061715E-03
4.593402E-02	4.663304E+00	1.075670E-02	4.049851E-03
4.769351E-02	4.508118E+00	9.835884E-03	4.093278E-03
4.952041E-02	4.343853E+00	9.287528E-03	4.112986E-03
5.141729E-02	4.212204E+00	8.710595E-03	4.126237E-03
5.338682E-02	4.057153E+00	8.228857E-03	4.154429E-03
5.543180E-02	3.916166E+00	7.697472E-03	4.160449E-03
5.755511E-02	3.769164E+00	7.262534E-03	4.174723E-03
5.975976E-02	3.616472E+00	6.793408E-03	4.201892E-03
6.204885E-02	3.475412E+00	6.502815E-03	4.191735E-03
6.442563E-02	3.318741E+00	5.963512E-03	4.222637E-03
6.689345E-02	3.180946E+00	5.655081E-03	4.228282E-03
6.945579E-02	3.032661E+00	5.342627E-03	4.227215E-03
7.211629E-02	2.882580E+00	4.983977E-03	4.242969E-03
7.487870E-02	2.728313E+00	4.646214E-03	4.253639E-03
7.774693E-02	2.580722E+00	4.384953E-03	4.256392E-03
8.072502E-02	2.436060E+00	4.096411E-03	4.263675E-03
8.381718E-02	2.292582E+00	3.812092E-03	4.272409E-03
8.702779E-02	2.152802E+00	3.552757E-03	4.270732E-03
9.036139E-02	2.013699E+00	3.334044E-03	4.282931E-03
9.382267E-02	1.887463E+00	3.084350E-03	4.304957E-03
9.741654E-02	1.756296E+00	2.869679E-03	4.305410E-03
1.011481E-01	1.625575E+00	2.647202E-03	4.318577E-03
1.050225E-01	1.505980E+00	2.457242E-03	4.322863E-03
1.090454E-01	1.388018E+00	2.268162E-03	4.336967E-03
1.132224E-01	1.276530E+00	2.101736E-03	4.346187E-03
1.175594E-01	1.167027E+00	1.928891E-03	4.360175E-03
1.220625E-01	1.070869E+00	1.781809E-03	4.375161E-03
1.267381E-01	9.749597E-01	1.635593E-03	4.385635E-03
1.315928E-01	8.868411E-01	1.505415E-03	4.405102E-03
1.366334E-01	8.040511E-01	1.375682E-03	4.423763E-03
1.418672E-01	7.327182E-01	1.263109E-03	4.439676E-03
1.473014E-01	6.661589E-01	1.157839E-03	4.457163E-03
1.529437E-01	6.054028E-01	1.068165E-03	4.477160E-03
1.588022E-01	5.552921E-01	9.793896E-04	4.504223E-03
1.648851E-01	5.101576E-01	9.070135E-04	4.523941E-03
1.712011E-01	4.725659E-01	8.376755E-04	4.553878E-03
1.777589E-01	4.415781E-01	7.813861E-04	4.576567E-03
1.845679E-01	4.145389E-01	7.257255E-04	4.614349E-03
1.916378E-01	3.938056E-01	6.829933E-04	4.638372E-03
1.989785E-01	3.779376E-01	6.432502E-04	4.673847E-03
2.066003E-01	3.630094E-01	6.062725E-04	4.711048E-03
2.145141E-01	3.526989E-01	5.759729E-04	4.757955E-03
2.227311E-01	3.430456E-01	5.476725E-04	4.815193E-03
2.312628E-01	3.375208E-01	5.255157E-04	4.897025E-03
2.401213E-01	3.325258E-01	5.062850E-04	4.988672E-03
2.493191E-01	3.290411E-01	4.909219E-04	5.093843E-03
2.588693E-01	3.254472E-01	4.768045E-04	5.210403E-03
2.687852E-01	3.210462E-01	4.650074E-04	5.351249E-03
2.790810E-01	3.166093E-01	4.540312E-04	5.511806E-03
2.897712E-01	3.126829E-01	4.437866E-04	5.694420E-03
3.008709E-01	3.078330E-01	4.368932E-04	5.900633E-03
3.123957E-01	3.027206E-01	4.270877E-04	6.136272E-03
3.243620E-01	2.964690E-01	4.193966E-04	6.397076E-03
3.367867E-01	2.901696E-01	4.122908E-04	6.681132E-03
3.496873E-01	2.829307E-01	4.052925E-04	6.976857E-03
3.630820E-01	2.759279E-01	4.003710E-04	7.289143E-03
3.769898E-01	2.689052E-01	3.967740E-04	7.616701E-03
3.914304E-01	2.621868E-01	3.954868E-04	7.954903E-03
4.064241E-01	2.556277E-01	3.953837E-04	8.309148E-03
4.219922E-01	2.496564E-01	3.994335E-04	8.676185E-03
4.381566E-01	2.433487E-01	4.041861E-04	9.055190E-03
4.549401E-01	2.395089E-01	4.166284E-04	9.438724E-03
4.723666E-01	2.346659E-01	4.326950E-04	9.833374E-03
4.904605E-01	2.315810E-01	4.567420E-04	1.022778E-02
5.092476E-01	2.289748E-01	4.892281E-04	1.063714E-02
5.287543E-01	2.241396E-01	5.273323E-04	1.106182E-02
5.490082E-01	2.222654E-01	5.806222E-04	1.151798E-02
5.700379E-01	2.192089E-01	6.526533E-04	1.198655E-02
5.918731E-01	2.167680E-01	7.610270E-04	1.244451E-02
6.145448E-01	2.102322E-01	8.996072E-04	1.293115E-02
6.380849E-01	2.066198E-01	1.108943E-03	1.345131E-02
6.625267E-01	2.016337E-01	1.452258E-03	1.398872E-02
6.879047E-01	1.955441E-01	2.096335E-03	1.451619E-02
7.142549E-01	1.769594E-01	3.388897E-03	1.508464E-02
7.416144E-01	1.430327E-01	8.461152E-03	1.550961E-02
