# I(Q)
#Q (1/A)        I (1/cm)        dI (1/cm)       dQ (1/A)
1.794781E-02	8.164407E+00	5.473312E-01	3.211078E-03
1.863530E-02	8.261920E+00	2.385655E-01	3.239509E-03
1.934913E-02	8.862240E+00	1.594655E-01	3.273288E-03
2.009029E-02	8.631583E+00	1.020543E-01	3.308806E-03
2.085985E-02	8.503610E+00	8.661634E-02	3.377556E-03
2.165889E-02	8.270202E+00	7.385475E-02	3.423522E-03
2.248853E-02	8.089825E+00	6.495927E-02	3.441902E-03
2.334995E-02	7.852527E+00	5.329156E-02	3.502750E-03
2.424437E-02	7.600905E+00	4.603417E-02	3.538497E-03
2.517305E-02	7.384981E+00	4.059810E-02	3.570290E-03
2.613730E-02	7.136627E+00	3.587561E-02	3.596252E-03
2.713848E-02	6.907451E+00	3.185516E-02	3.640987E-03
2.817802E-02	6.677587E+00	2.834183E-02	3.677530E-03
2.925738E-02	6.522281E+00	2.612679E-02	3.673000E-03
3.037808E-02	6.330188E+00	2.303285E-02	3.744497E-03
3.154171E-02	6.169439E+00	2.141846E-02	3.766571E-03
3.274991E-02	5.998346E+00	1.924698E-02	3.809127E-03
3.400440E-02	5.857204E+00	1.799982E-02	3.834154E-03
3.530693E-02	5.677886E+00	1.638168E-02	3.852169E-03
3.665936E-02	5.488527E+00	1.473999E-02	3.905938E-03
3.806360E-02	5.390369E+00	1.392916E-02	3.921734E-03
3.952162E-02	5.232831E+00	1.286369E-02	3.961812E-03
4.103549E-02	5.046715E+00	1.190461E-02	4.005544E-03
4.260736E-02	4.929421E+00	1.110391E-02	4.023629E-03
4.423943E-02	4.781732E+00	1.036485E-02	4.061715E-03
4.593402E-02	4.661548E+00	9.909508E-03	4.049851E-03
4.769351E-02	4.509092E+00	9.066959E-03	4.093278E-03
4.952041E-02	4.342146E+00	8.556568E-03	4.112986E-03
5.141729E-02	4.208160E+00	8.023990E-03	4.126237E-03
5.338682E-02	4.053032E+00	7.580481E-03	4.154429E-03
5.543180E-02	3.912576E+00	7.090999E-03	4.160449E-03
5.755511E-02	3.771941E+00	6.696204E-03	4.174723E-03
5.975976E-02	3.614893E+00	6.257321E-03	4.201892E-03
6.204885E-02	3.473970E+00	5.991010E-03	4.191735E-03
6.442563E-02	3.319523E+00	5.493837E-03	4.222637E-03
6.689344E-02	3.178900E+00	5.208885E-03	4.228281E-03
6.945579E-02	3.034923E+00	4.925530E-03	4.227215E-03
7.211629E-02	2.882806E+00	4.593791E-03	4.242969E-03
7.487870E-02	2.728496E+00	4.281164E-03	4.253638E-03
7.774692E-02	2.581454E+00	4.040813E-03	4.256392E-03
8.072501E-02	2.436252E+00	3.775227E-03	4.263675E-03
8.381718E-02	2.292088E+00	3.511426E-03	4.272409E-03
8.702779E-02	2.154159E+00	3.275194E-03	4.270732E-03
9.036139E-02	2.014588E+00	3.072861E-03	4.282931E-03
9.382267E-02	1.887012E+00	2.841663E-03	4.304957E-03
9.741654E-02	1.755368E+00	2.643419E-03	4.305410E-03
1.011481E-01	1.625506E+00	2.438823E-03	4.318577E-03
1.050225E-01	1.507427E+00	2.265466E-03	4.322863E-03
1.090454E-01	1.388870E+00	2.089798E-03	4.336967E-03
1.132224E-01	1.276694E+00	1.936791E-03	4.346187E-03
1.175594E-01	1.167149E+00	1.777565E-03	4.360175E-03
1.220625E-01	1.070392E+00	1.641774E-03	4.375161E-03
1.267381E-01	9.749822E-01	1.507384E-03	4.385635E-03
1.315928E-01	8.873225E-01	1.387381E-03	4.405102E-03
1.366334E-01	8.052575E-01	1.268226E-03	4.423763E-03
1.418672E-01	7.330686E-01	1.164358E-03	4.439676E-03
1.473014E-01	6.670145E-01	1.067631E-03	4.457163E-03
1.529437E-01	6.055655E-01	9.843767E-04	4.477160E-03
1.588022E-01	5.545988E-01	9.017798E-04	4.504223E-03
1.648851E-01	5.106395E-01	8.362462E-04	4.523941E-03
1.712011E-01	4.725213E-01	7.715034E-04	4.553878E-03
1.777589E-01	4.415491E-01	7.199019E-04	4.576567E-03
1.845679E-01	4.149366E-01	6.689878E-04	4.614349E-03
1.916378E-01	3.934957E-01	6.289414E-04	4.638372E-03
1.989785E-01	3.781094E-01	5.926044E-04	4.673847E-03
2.066003E-01	3.629213E-01	5.582133E-04	4.711048E-03
2.145141E-01	3.526478E-01	5.301466E-04	4.757955E-03
2.227311E-01	3.433608E-01	5.045761E-04	4.815193E-03
2.312628E-01	3.375574E-01	4.839316E-04	4.897025E-03
2.401213E-01	3.331474E-01	4.667197E-04	4.988672E-03
2.493191E-01	3.291650E-01	4.521274E-04	5.093843E-03
2.588693E-01	3.254631E-01	4.390976E-04	5.210403E-03
2.687852E-01	3.212484E-01	4.284245E-04	5.351249E-03
2.790810E-01	3.165988E-01	4.180598E-04	5.511806E-03
2.897712E-01	3.128602E-01	4.087229E-04	5.694420E-03
3.008709E-01	3.075829E-01	4.021069E-04	5.900633E-03
3.123957E-01	3.025399E-01	3.933026E-04	6.136272E-03
3.243620E-01	2.967618E-01	3.865830E-04	6.397076E-03
3.367867E-01	2.903109E-01	3.800873E-04	6.681132E-03
3.496873E-01	2.830712E-01	3.735517E-04	6.976857E-03
3.630820E-01	2.757907E-01	3.687632E-04	7.289143E-03
3.769898E-01	2.689589E-01	3.656898E-04	7.616701E-03
3.914304E-01	2.623027E-01	3.644400E-04	7.954903E-03
4.064241E-01	2.555140E-01	3.642537E-04	8.309147E-03
4.219922E-01	2.498067E-01	3.682487E-04	8.676185E-03
4.381566E-01	2.432967E-01	3.723416E-04	9.055190E-03
4.549401E-01	2.394748E-01	3.839362E-04	9.438723E-03
4.723666E-01	2.345402E-01	3.985869E-04	9.833374E-03
4.904605E-01	2.316195E-01	4.208990E-04	1.022778E-02
5.092476E-01	2.287584E-01	4.506217E-04	1.063714E-02
5.287543E-01	2.241887E-01	4.859994E-04	1.106182E-02
5.490082E-01	2.222939E-01	5.350301E-04	1.151798E-02
5.700379E-01	2.188255E-01	6.008908E-04	1.198655E-02
5.918731E-01	2.171210E-01	7.019316E-04	1.244451E-02
6.145448E-01	2.103820E-01	8.290231E-04	1.293115E-02
6.380849E-01	2.069028E-01	1.022558E-03	1.345131E-02
6.625267E-01	2.022372E-01	1.340011E-03	1.398872E-02
6.879047E-01	1.953774E-01	1.931704E-03	1.451619E-02
7.142549E-01	1.770254E-01	3.121163E-03	1.508464E-02
7.416143E-01	1.436458E-01	7.803807E-03	1.550961E-02
