# I(Q)
#Q (1/A)        I (1/cm)        dI (1/cm)       dQ (1/A)
1.794781E-02	1.472328E+01	1.125986E+00	3.211078E-03
1.863530E-02	1.453043E+01	4.869722E-01	3.239509E-03
1.934913E-02	1.499795E+01	3.193465E-01	3.273288E-03
2.009029E-02	1.535869E+01	2.095218E-01	3.308806E-03
2.085985E-02	1.490250E+01	1.768581E-01	3.377556E-03
2.165889E-02	1.396129E+01	1.471687E-01	3.423522E-03
2.248853E-02	1.363802E+01	1.299152E-01	3.441902E-03
2.334995E-02	1.303414E+01	1.056490E-01	3.502750E-03
2.424437E-02	1.218937E+01	8.935260E-02	3.538498E-03
2.517305E-02	1.168002E+01	7.815213E-02	3.570290E-03
2.613730E-02	1.127375E+01	6.915485E-02	3.596253E-03
2.713849E-02	1.067876E+01	6.074452E-02	3.640987E-03
2.817802E-02	1.034049E+01	5.408918E-02	3.677530E-03
2.925738E-02	1.004178E+01	4.992157E-02	3.673000E-03
3.037808E-02	9.549028E+00	4.349954E-02	3.744497E-03
3.154171E-02	9.183216E+00	4.010197E-02	3.766571E-03
3.274992E-02	8.834465E+00	3.595053E-02	3.809127E-03
3.400440E-02	8.477891E+00	3.325096E-02	3.834154E-03
3.530694E-02	8.097331E+00	3.005012E-02	3.852170E-03
3.665937E-02	7.779192E+00	2.702224E-02	3.905938E-03
3.806360E-02	7.472042E+00	2.514497E-02	3.921734E-03
3.952162E-02	7.185013E+00	2.312862E-02	3.961813E-03
4.103550E-02	6.890257E+00	2.135204E-02	4.005544E-03
4.260736E-02	6.627278E+00	1.973790E-02	4.023629E-03
4.423943E-02	6.360392E+00	1.831951E-02	4.061715E-03
4.593402E-02	6.173081E+00	1.752210E-02	4.049851E-03
4.769352E-02	5.901611E+00	1.591543E-02	4.093278E-03
4.952041E-02	5.650386E+00	1.498968E-02	4.112986E-03
5.141729E-02	5.372092E+00	1.390209E-02	4.126237E-03
5.338682E-02	5.147385E+00	1.310842E-02	4.154429E-03
5.543180E-02	4.921816E+00	1.219487E-02	4.160449E-03
5.755511E-02	4.695154E+00	1.147779E-02	4.174723E-03
5.975976E-02	4.488894E+00	1.071272E-02	4.201892E-03
6.204885E-02	4.251848E+00	1.016081E-02	4.191735E-03
6.442563E-02	4.058281E+00	9.327152E-03	4.222637E-03
6.689345E-02	3.838055E+00	8.777014E-03	4.228282E-03
6.945580E-02	3.643575E+00	8.296955E-03	4.227215E-03
7.211630E-02	3.442007E+00	7.697844E-03	4.242969E-03
7.487871E-02	3.240413E+00	7.164476E-03	4.253639E-03
7.774693E-02	3.044484E+00	6.734325E-03	4.256393E-03
8.072502E-02	2.857840E+00	6.283771E-03	4.263675E-03
8.381719E-02	2.673197E+00	5.826776E-03	4.272409E-03
8.702780E-02	2.500967E+00	5.423817E-03	4.270732E-03
9.036139E-02	2.331810E+00	5.078142E-03	4.282932E-03
9.382268E-02	2.161244E+00	4.670160E-03	4.304957E-03
9.741655E-02	1.997003E+00	4.326850E-03	4.305410E-03
1.011481E-01	1.853893E+00	4.003865E-03	4.318577E-03
1.050226E-01	1.700066E+00	3.692430E-03	4.322863E-03
1.090454E-01	1.569331E+00	3.413727E-03	4.336968E-03
1.132224E-01	1.434855E+00	3.151046E-03	4.346187E-03
1.175594E-01	1.312535E+00	2.899815E-03	4.360175E-03
1.220625E-01	1.194145E+00	2.662391E-03	4.375161E-03
1.267381E-01	1.087752E+00	2.447017E-03	4.385635E-03
1.315928E-01	9.846864E-01	2.244060E-03	4.405103E-03
1.366334E-01	8.968768E-01	2.059028E-03	4.423763E-03
1.418672E-01	8.109735E-01	1.885235E-03	4.439676E-03
1.473014E-01	7.337187E-01	1.721088E-03	4.457164E-03
1.529437E-01	6.690732E-01	1.595063E-03	4.477160E-03
1.588022E-01	6.099805E-01	1.455744E-03	4.504223E-03
1.648852E-01	5.578420E-01	1.345284E-03	4.523941E-03
1.712011E-01	5.135237E-01	1.239653E-03	4.553878E-03
1.777589E-01	4.768781E-01	1.155246E-03	4.576567E-03
1.845680E-01	4.446911E-01	1.071242E-03	4.614349E-03
1.916378E-01	4.202631E-01	1.005915E-03	4.638372E-03
1.989785E-01	3.977250E-01	9.409598E-04	4.673848E-03
2.066003E-01	3.802633E-01	8.879093E-04	4.711049E-03
2.145142E-01	3.654982E-01	8.397039E-04	4.757956E-03
2.227311E-01	3.543512E-01	7.980917E-04	4.815194E-03
2.312628E-01	3.468529E-01	7.638947E-04	4.897025E-03
2.401213E-01	3.414668E-01	7.358619E-04	4.988673E-03
2.493191E-01	3.356987E-01	7.108915E-04	5.093843E-03
2.588693E-01	3.299418E-01	6.869481E-04	5.210403E-03
2.687853E-01	3.269734E-01	6.710786E-04	5.351249E-03
2.790811E-01	3.232166E-01	6.551079E-04	5.511806E-03
2.897712E-01	3.203416E-01	6.412019E-04	5.694421E-03
3.008709E-01	3.142153E-01	6.300217E-04	5.900633E-03
3.123957E-01	3.084616E-01	6.140600E-04	6.136272E-03
3.243620E-01	3.032103E-01	6.028354E-04	6.397077E-03
3.367867E-01	2.978109E-01	5.926857E-04	6.681132E-03
3.496873E-01	2.909726E-01	5.830199E-04	6.976857E-03
3.630820E-01	2.828904E-01	5.738159E-04	7.289144E-03
3.769899E-01	2.756401E-01	5.690544E-04	7.616702E-03
3.914304E-01	2.690589E-01	5.682263E-04	7.954904E-03
4.064242E-01	2.622050E-01	5.684822E-04	8.309148E-03
4.219922E-01	2.551402E-01	5.718947E-04	8.676185E-03
4.381566E-01	2.502780E-01	5.808960E-04	9.055191E-03
4.549401E-01	2.446077E-01	5.975638E-04	9.438724E-03
4.723666E-01	2.398910E-01	6.199484E-04	9.833375E-03
4.904606E-01	2.366151E-01	6.537296E-04	1.022778E-02
5.092476E-01	2.345931E-01	7.017022E-04	1.063714E-02
5.287543E-01	2.308069E-01	7.590878E-04	1.106182E-02
5.490082E-01	2.283240E-01	8.347618E-04	1.151798E-02
5.700379E-01	2.235331E-01	9.341744E-04	1.198655E-02
5.918732E-01	2.201644E-01	1.086972E-03	1.244451E-02
6.145448E-01	2.142355E-01	1.286431E-03	1.293115E-02
6.380849E-01	2.082223E-01	1.575677E-03	1.345131E-02
6.625267E-01	2.104772E-01	2.096714E-03	1.398872E-02
6.879048E-01	1.986593E-01	2.997239E-03	1.451619E-02
7.142549E-01	1.792586E-01	4.811424E-03	1.508465E-02
7.416144E-01	1.379521E-01	1.171660E-02	1.550961E-02
