# I(Q)
#Q (1/A)        I (1/cm)        dI (1/cm)       dQ (1/A)
1.794759E-02	1.523309E+00	2.116923E-01	3.211060E-03
1.863508E-02	1.695635E+00	9.588642E-02	3.239493E-03
1.934890E-02	1.796029E+00	6.388287E-02	3.273277E-03
2.009006E-02	1.839155E+00	4.173852E-02	3.308797E-03
2.085961E-02	1.908492E+00	3.645405E-02	3.377552E-03
2.165864E-02	1.982614E+00	3.184085E-02	3.423516E-03
2.248827E-02	2.057961E+00	2.892231E-02	3.441899E-03
2.334969E-02	2.028080E+00	2.385920E-02	3.502746E-03
2.424410E-02	2.123631E+00	2.139287E-02	3.538493E-03
2.517277E-02	2.226048E+00	1.961225E-02	3.570288E-03
2.613701E-02	2.359048E+00	1.827107E-02	3.596249E-03
2.713819E-02	2.431726E+00	1.672842E-02	3.640984E-03
2.817772E-02	2.552835E+00	1.548750E-02	3.677528E-03
2.925707E-02	2.698449E+00	1.479063E-02	3.672997E-03
3.037776E-02	2.853379E+00	1.362904E-02	3.744495E-03
3.154139E-02	3.040942E+00	1.328464E-02	3.766569E-03
3.274958E-02	3.301032E+00	1.260455E-02	3.809125E-03
3.400406E-02	3.588532E+00	1.245793E-02	3.834152E-03
3.530658E-02	3.847006E+00	1.195076E-02	3.852369E-03
3.665900E-02	4.196542E+00	1.144171E-02	3.905705E-03
3.806323E-02	4.588735E+00	1.140346E-02	3.920975E-03
3.952124E-02	5.043357E+00	1.123517E-02	3.962965E-03
4.103511E-02	5.479218E+00	1.103314E-02	4.005044E-03
4.260696E-02	5.969798E+00	1.086767E-02	4.024200E-03
4.423902E-02	6.473660E+00	1.070434E-02	4.061148E-03
4.593360E-02	6.992371E+00	1.079044E-02	4.049850E-03
4.769309E-02	7.418072E+00	1.035949E-02	4.092347E-03
4.951997E-02	7.787071E+00	1.020341E-02	4.113838E-03
5.141684E-02	8.074252E+00	9.905901E-03	4.126237E-03
5.338636E-02	8.206438E+00	9.606116E-03	4.154428E-03
5.543133E-02	8.228768E+00	9.159337E-03	4.160449E-03
5.755463E-02	8.100276E+00	8.735922E-03	4.174723E-03
5.975927E-02	7.847088E+00	8.204136E-03	4.200923E-03
6.204835E-02	7.516154E+00	7.833608E-03	4.191885E-03
6.442511E-02	7.119530E+00	7.150631E-03	4.223763E-03
6.689292E-02	6.664606E+00	6.696524E-03	4.227190E-03
6.945526E-02	6.257333E+00	6.281397E-03	4.228092E-03
7.211574E-02	5.852394E+00	5.803295E-03	4.242864E-03
7.487814E-02	5.474569E+00	5.383574E-03	4.253528E-03
7.774635E-02	5.133825E+00	5.054790E-03	4.256544E-03
8.072443E-02	4.840477E+00	4.725535E-03	4.263404E-03
8.381659E-02	4.576753E+00	4.405012E-03	4.272513E-03
8.702719E-02	4.332541E+00	4.129549E-03	4.270559E-03
9.036077E-02	4.097590E+00	3.890714E-03	4.282844E-03
9.382204E-02	3.877394E+00	3.615848E-03	4.304798E-03
9.741590E-02	3.660452E+00	3.391277E-03	4.305677E-03
1.011474E-01	3.442921E+00	3.154352E-03	4.318678E-03
1.050219E-01	3.221002E+00	2.942801E-03	4.322895E-03
1.090447E-01	2.982837E+00	2.722520E-03	4.337041E-03
1.132217E-01	2.744465E+00	2.523695E-03	4.346153E-03
1.175587E-01	2.493662E+00	2.310000E-03	4.360116E-03
1.220618E-01	2.262429E+00	2.122793E-03	4.375197E-03
1.267374E-01	2.030328E+00	1.935577E-03	4.385646E-03
1.315920E-01	1.803373E+00	1.757694E-03	4.405075E-03
1.366327E-01	1.594480E+00	1.588013E-03	4.423860E-03
1.418664E-01	1.401636E+00	1.433479E-03	4.439392E-03
1.473006E-01	1.228854E+00	1.290518E-03	4.457290E-03
1.529430E-01	1.067398E+00	1.163970E-03	4.477093E-03
1.588014E-01	9.311784E-01	1.040406E-03	4.504272E-03
1.648843E-01	8.106273E-01	9.368310E-04	4.524072E-03
1.712002E-01	7.100220E-01	8.424699E-04	4.553757E-03
1.777581E-01	6.249844E-01	7.612698E-04	4.576650E-03
1.845671E-01	5.570610E-01	6.900675E-04	4.614428E-03
1.916370E-01	5.054210E-01	6.342333E-04	4.638351E-03
1.989776E-01	4.659965E-01	5.842659E-04	4.673783E-03
2.065995E-01	4.369903E-01	5.443690E-04	4.711036E-03
2.145133E-01	4.151199E-01	5.105098E-04	4.758036E-03
2.227302E-01	4.022685E-01	4.852680E-04	4.815196E-03
2.312619E-01	3.938729E-01	4.645982E-04	4.897079E-03
2.401204E-01	3.890612E-01	4.485557E-04	4.988628E-03
2.493182E-01	3.853605E-01	4.343744E-04	5.093892E-03
2.588684E-01	3.799525E-01	4.210610E-04	5.210445E-03
2.687844E-01	3.772275E-01	4.121342E-04	5.351128E-03
2.790802E-01	3.718572E-01	4.025652E-04	5.511851E-03
2.897703E-01	3.642389E-01	3.920827E-04	5.694380E-03
3.008700E-01	3.549138E-01	3.838305E-04	5.900729E-03
3.123949E-01	3.460277E-01	3.735887E-04	6.136226E-03
3.243612E-01	3.373011E-01	3.662908E-04	6.397045E-03
3.367858E-01	3.265075E-01	3.579539E-04	6.681119E-03
3.496864E-01	3.165474E-01	3.508148E-04	6.976792E-03
3.630812E-01	3.079383E-01	3.460917E-04	7.289217E-03
3.769890E-01	2.988667E-01	3.424715E-04	7.616648E-03
3.914296E-01	2.904877E-01	3.410094E-04	7.954807E-03
4.064234E-01	2.837044E-01	3.415269E-04	8.309129E-03
4.219914E-01	2.768671E-01	3.446173E-04	8.676317E-03
4.381558E-01	2.700353E-01	3.488103E-04	9.054990E-03
4.549394E-01	2.645459E-01	3.590774E-04	9.438781E-03
4.723659E-01	2.591119E-01	3.726747E-04	9.833325E-03
4.904599E-01	2.564407E-01	3.939685E-04	1.022779E-02
5.092470E-01	2.524474E-01	4.212278E-04	1.063714E-02
5.287537E-01	2.486901E-01	4.561631E-04	1.106182E-02
5.490077E-01	2.447581E-01	4.994942E-04	1.151798E-02
5.700374E-01	2.423745E-01	5.632117E-04	1.198655E-02
5.918727E-01	2.387761E-01	6.552529E-04	1.244451E-02
6.145445E-01	2.329140E-01	7.762975E-04	1.293115E-02
6.380846E-01	2.267053E-01	9.520137E-04	1.345131E-02
6.625265E-01	2.211444E-01	1.244017E-03	1.398872E-02
6.879046E-01	2.130251E-01	1.793034E-03	1.451619E-02
7.142548E-01	1.954285E-01	2.908915E-03	1.508465E-02
7.416144E-01	1.663463E-01	7.536362E-03	1.550961E-02
