# I(Q)
#Q (1/A)        I (1/cm)        dI (1/cm)       dQ (1/A)
1.794767E-02	1.683541E+01	8.053938E-01	3.211066E-03
1.863515E-02	1.687962E+01	3.484064E-01	3.239499E-03
1.934897E-02	1.768087E+01	2.317527E-01	3.273281E-03
2.009014E-02	1.723935E+01	1.479981E-01	3.308800E-03
2.085969E-02	1.715538E+01	1.263896E-01	3.377553E-03
2.165872E-02	1.696914E+01	1.084906E-01	3.423518E-03
2.248836E-02	1.657133E+01	9.551553E-02	3.441900E-03
2.334977E-02	1.608132E+01	7.826116E-02	3.502747E-03
2.424419E-02	1.557962E+01	6.760966E-02	3.538494E-03
2.517286E-02	1.509479E+01	5.942031E-02	3.570289E-03
2.613711E-02	1.486281E+01	5.300903E-02	3.596250E-03
2.713829E-02	1.445552E+01	4.741233E-02	3.640985E-03
2.817782E-02	1.415681E+01	4.241071E-02	3.677529E-03
2.925718E-02	1.372484E+01	3.884602E-02	3.672998E-03
3.037787E-02	1.344253E+01	3.443399E-02	3.744496E-03
3.154150E-02	1.317347E+01	3.209483E-02	3.766570E-03
3.274969E-02	1.294207E+01	2.905289E-02	3.809125E-03
3.400417E-02	1.254089E+01	2.704205E-02	3.834153E-03
3.530670E-02	1.223601E+01	2.472688E-02	3.852370E-03
3.665913E-02	1.187043E+01	2.225236E-02	3.905705E-03
3.806335E-02	1.164196E+01	2.098422E-02	3.921733E-03
3.952137E-02	1.133775E+01	1.941572E-02	3.961811E-03
4.103524E-02	1.098297E+01	1.801471E-02	4.005543E-03
4.260709E-02	1.068714E+01	1.675236E-02	4.024200E-03
4.423916E-02	1.043030E+01	1.568133E-02	4.061148E-03
4.593374E-02	1.010526E+01	1.494610E-02	4.049851E-03
4.769323E-02	9.793097E+00	1.370983E-02	4.092347E-03
4.952012E-02	9.427184E+00	1.291706E-02	4.113838E-03
5.141699E-02	9.111411E+00	1.211363E-02	4.126237E-03
5.338652E-02	8.766790E+00	1.143506E-02	4.154429E-03
5.543149E-02	8.433870E+00	1.067512E-02	4.160449E-03
5.755479E-02	8.103733E+00	1.006400E-02	4.174723E-03
5.975943E-02	7.742797E+00	9.389202E-03	4.200923E-03
6.204852E-02	7.395367E+00	8.954604E-03	4.191885E-03
6.442529E-02	7.037013E+00	8.205852E-03	4.223763E-03
6.689310E-02	6.685374E+00	7.740737E-03	4.227291E-03
6.945544E-02	6.319831E+00	7.285164E-03	4.227741E-03
7.211593E-02	5.984893E+00	6.786094E-03	4.243105E-03
7.487833E-02	5.621498E+00	6.300386E-03	4.253653E-03
7.774655E-02	5.277152E+00	5.921050E-03	4.256427E-03
8.072463E-02	4.940728E+00	5.516085E-03	4.263237E-03
8.381679E-02	4.615462E+00	5.110041E-03	4.272666E-03
8.702739E-02	4.293185E+00	4.745842E-03	4.270808E-03
9.036097E-02	3.985933E+00	4.427681E-03	4.282995E-03
9.382225E-02	3.694053E+00	4.074749E-03	4.304833E-03
9.741612E-02	3.409125E+00	3.775833E-03	4.305351E-03
1.011476E-01	3.140086E+00	3.479131E-03	4.318635E-03
1.050221E-01	2.874818E+00	3.207347E-03	4.322751E-03
1.090450E-01	2.621519E+00	2.943636E-03	4.337073E-03
1.132219E-01	2.390048E+00	2.718336E-03	4.346257E-03
1.175589E-01	2.161990E+00	2.483109E-03	4.360114E-03
1.220620E-01	1.950554E+00	2.273152E-03	4.375195E-03
1.267376E-01	1.754363E+00	2.076191E-03	4.385644E-03
1.315923E-01	1.569377E+00	1.892416E-03	4.405072E-03
1.366329E-01	1.404911E+00	1.721269E-03	4.423817E-03
1.418666E-01	1.245471E+00	1.560410E-03	4.439573E-03
1.473009E-01	1.108461E+00	1.414457E-03	4.457153E-03
1.529432E-01	9.812888E-01	1.288732E-03	4.477090E-03
1.588017E-01	8.696103E-01	1.159461E-03	4.504362E-03
1.648846E-01	7.746741E-01	1.058188E-03	4.523983E-03
1.712005E-01	6.923225E-01	9.599554E-04	4.553694E-03
1.777584E-01	6.219749E-01	8.781247E-04	4.576667E-03
1.845674E-01	5.649947E-01	8.016529E-04	4.614435E-03
1.916372E-01	5.188888E-01	7.429780E-04	4.638333E-03
1.989779E-01	4.796385E-01	6.850041E-04	4.673785E-03
2.065998E-01	4.492020E-01	6.384039E-04	4.711068E-03
2.145136E-01	4.227182E-01	5.952398E-04	4.758037E-03
2.227305E-01	4.060057E-01	5.638861E-04	4.815166E-03
2.312622E-01	3.922391E-01	5.358212E-04	4.897106E-03
2.401207E-01	3.814971E-01	5.129602E-04	4.988654E-03
2.493185E-01	3.733942E-01	4.934164E-04	5.093828E-03
2.588687E-01	3.674445E-01	4.790340E-04	5.210454E-03
2.687847E-01	3.615055E-01	4.661863E-04	5.351110E-03
2.790805E-01	3.552745E-01	4.542276E-04	5.511926E-03
2.897706E-01	3.504818E-01	4.438087E-04	5.694336E-03
3.008703E-01	3.451924E-01	4.375746E-04	5.900690E-03
3.123951E-01	3.382294E-01	4.268441E-04	6.136273E-03
3.243614E-01	3.303878E-01	4.186294E-04	6.397060E-03
3.367861E-01	3.227812E-01	4.108862E-04	6.681105E-03
3.496867E-01	3.144449E-01	4.041288E-04	6.976839E-03
3.630815E-01	3.059383E-01	3.979133E-04	7.289140E-03
3.769893E-01	2.975800E-01	3.946870E-04	7.616696E-03
3.914299E-01	2.895320E-01	3.930770E-04	7.954822E-03
4.064236E-01	2.822113E-01	3.935568E-04	8.309125E-03
4.219917E-01	2.755483E-01	3.970353E-04	8.676251E-03
4.381561E-01	2.685150E-01	4.018356E-04	9.055078E-03
4.549396E-01	2.639705E-01	4.140393E-04	9.438781E-03
4.723661E-01	2.583914E-01	4.298744E-04	9.833325E-03
4.904601E-01	2.549427E-01	4.536582E-04	1.022779E-02
5.092472E-01	2.511555E-01	4.849015E-04	1.063714E-02
5.287539E-01	2.476676E-01	5.254100E-04	1.106182E-02
5.490078E-01	2.450732E-01	5.772753E-04	1.151798E-02
5.700376E-01	2.411263E-01	6.481867E-04	1.198655E-02
5.918729E-01	2.374481E-01	7.536992E-04	1.244451E-02
6.145446E-01	2.327767E-01	8.965208E-04	1.293115E-02
6.380847E-01	2.279951E-01	1.102329E-03	1.345131E-02
6.625265E-01	2.224206E-01	1.441810E-03	1.398872E-02
6.879046E-01	2.132090E-01	2.073209E-03	1.451619E-02
7.142548E-01	1.986125E-01	3.395051E-03	1.508464E-02
7.416144E-01	1.657725E-01	8.593619E-03	1.550961E-02
