# I(Q)
#Q (1/A)        I (1/cm)        dI (1/cm)       dQ (1/A)
1.794781E-02	2.683258E+01	1.251727E+00	3.211078E-03
1.863530E-02	2.355759E+01	5.067061E-01	3.239509E-03
1.934913E-02	2.482334E+01	3.374007E-01	3.273289E-03
2.009029E-02	2.437118E+01	2.166754E-01	3.308806E-03
2.085985E-02	2.339815E+01	1.809038E-01	3.377556E-03
2.165889E-02	2.271589E+01	1.541984E-01	3.423522E-03
2.248853E-02	2.198948E+01	1.351046E-01	3.441902E-03
2.334995E-02	2.115778E+01	1.101349E-01	3.502750E-03
2.424437E-02	2.012850E+01	9.406014E-02	3.538498E-03
2.517305E-02	1.944204E+01	8.291108E-02	3.570290E-03
2.613730E-02	1.870764E+01	7.317039E-02	3.596253E-03
2.713849E-02	1.795866E+01	6.489567E-02	3.640987E-03
2.817802E-02	1.743790E+01	5.772823E-02	3.677531E-03
2.925738E-02	1.652782E+01	5.241233E-02	3.673000E-03
3.037808E-02	1.610564E+01	4.629191E-02	3.744497E-03
3.154171E-02	1.556859E+01	4.288496E-02	3.766571E-03
3.274992E-02	1.499316E+01	3.839619E-02	3.809127E-03
3.400440E-02	1.438466E+01	3.552856E-02	3.834154E-03
3.530694E-02	1.387497E+01	3.227407E-02	3.852170E-03
3.665937E-02	1.339999E+01	2.906215E-02	3.905938E-03
3.806360E-02	1.293420E+01	2.717326E-02	3.921734E-03
3.952162E-02	1.247012E+01	2.500196E-02	3.961813E-03
4.103550E-02	1.194071E+01	2.307364E-02	4.005544E-03
4.260736E-02	1.154441E+01	2.138380E-02	4.023629E-03
4.423943E-02	1.108663E+01	1.986644E-02	4.061715E-03
4.593402E-02	1.072658E+01	1.891812E-02	4.049851E-03
4.769352E-02	1.025740E+01	1.720689E-02	4.093278E-03
4.952041E-02	9.797332E+00	1.618678E-02	4.112986E-03
5.141729E-02	9.424251E+00	1.513684E-02	4.126237E-03
5.338683E-02	9.016171E+00	1.423769E-02	4.154429E-03
5.543180E-02	8.589170E+00	1.321446E-02	4.160449E-03
5.755512E-02	8.215126E+00	1.244572E-02	4.174723E-03
5.975976E-02	7.814410E+00	1.158402E-02	4.201892E-03
6.204885E-02	7.436143E+00	1.103031E-02	4.191735E-03
6.442563E-02	7.062143E+00	1.009155E-02	4.222637E-03
6.689345E-02	6.647681E+00	9.478010E-03	4.228282E-03
6.945580E-02	6.297232E+00	8.938416E-03	4.227215E-03
7.211630E-02	5.942670E+00	8.300425E-03	4.242969E-03
7.487871E-02	5.579844E+00	7.712882E-03	4.253639E-03
7.774693E-02	5.235694E+00	7.243308E-03	4.256393E-03
8.072502E-02	4.893117E+00	6.743190E-03	4.263675E-03
8.381719E-02	4.561503E+00	6.245743E-03	4.272409E-03
8.702780E-02	4.250725E+00	5.807119E-03	4.270732E-03
9.036139E-02	3.928326E+00	5.402454E-03	4.282932E-03
9.382268E-02	3.635953E+00	4.972668E-03	4.304957E-03
9.741655E-02	3.361918E+00	4.610748E-03	4.305410E-03
1.011481E-01	3.082976E+00	4.234799E-03	4.318577E-03
1.050226E-01	2.824152E+00	3.908867E-03	4.322863E-03
1.090454E-01	2.569762E+00	3.583437E-03	4.336968E-03
1.132224E-01	2.343524E+00	3.305618E-03	4.346187E-03
1.175594E-01	2.122474E+00	3.023603E-03	4.360175E-03
1.220625E-01	1.915845E+00	2.769515E-03	4.375161E-03
1.267381E-01	1.723722E+00	2.526764E-03	4.385635E-03
1.315928E-01	1.547549E+00	2.308188E-03	4.405103E-03
1.366334E-01	1.381734E+00	2.096992E-03	4.423763E-03
1.418672E-01	1.236723E+00	1.910496E-03	4.439676E-03
1.473014E-01	1.104108E+00	1.734187E-03	4.457164E-03
1.529437E-01	9.801784E-01	1.583065E-03	4.477160E-03
1.588022E-01	8.750344E-01	1.430724E-03	4.504223E-03
1.648852E-01	7.853041E-01	1.310328E-03	4.523941E-03
1.712011E-01	7.021848E-01	1.189188E-03	4.553878E-03
1.777589E-01	6.321797E-01	1.087118E-03	4.576567E-03
1.845680E-01	5.739586E-01	9.942767E-04	4.614349E-03
1.916378E-01	5.266053E-01	9.193518E-04	4.638372E-03
1.989785E-01	4.885935E-01	8.502519E-04	4.673848E-03
2.066003E-01	4.556021E-01	7.906649E-04	4.711049E-03
2.145142E-01	4.287462E-01	7.382970E-04	4.757955E-03
2.227311E-01	4.093242E-01	6.956010E-04	4.815193E-03
2.312628E-01	3.965185E-01	6.630146E-04	4.897025E-03
2.401213E-01	3.869706E-01	6.357804E-04	4.988673E-03
2.493191E-01	3.782826E-01	6.122281E-04	5.093843E-03
2.588693E-01	3.718053E-01	5.929122E-04	5.210403E-03
2.687853E-01	3.676373E-01	5.785650E-04	5.351249E-03
2.790811E-01	3.620968E-01	5.645437E-04	5.511806E-03
2.897712E-01	3.558140E-01	5.495588E-04	5.694421E-03
3.008709E-01	3.510325E-01	5.425870E-04	5.900633E-03
3.123957E-01	3.448147E-01	5.298093E-04	6.136272E-03
3.243620E-01	3.385999E-01	5.203421E-04	6.397077E-03
3.367867E-01	3.306694E-01	5.109269E-04	6.681132E-03
3.496873E-01	3.213688E-01	5.008403E-04	6.976857E-03
3.630820E-01	3.132885E-01	4.945400E-04	7.289144E-03
3.769899E-01	3.055792E-01	4.909698E-04	7.616702E-03
3.914304E-01	2.969338E-01	4.881133E-04	7.954904E-03
4.064242E-01	2.889553E-01	4.882229E-04	8.309148E-03
4.219922E-01	2.817224E-01	4.918876E-04	8.676185E-03
4.381566E-01	2.751964E-01	4.987207E-04	9.055191E-03
4.549401E-01	2.696799E-01	5.128559E-04	9.438724E-03
4.723666E-01	2.647261E-01	5.333895E-04	9.833375E-03
4.904606E-01	2.607600E-01	5.620237E-04	1.022778E-02
5.092476E-01	2.572226E-01	6.010001E-04	1.063714E-02
5.287543E-01	2.542647E-01	6.515870E-04	1.106182E-02
5.490082E-01	2.499609E-01	7.133630E-04	1.151798E-02
5.700379E-01	2.465184E-01	8.024053E-04	1.198655E-02
5.918732E-01	2.436879E-01	9.360018E-04	1.244451E-02
6.145448E-01	2.384399E-01	1.109305E-03	1.293115E-02
6.380849E-01	2.345781E-01	1.368508E-03	1.345131E-02
6.625267E-01	2.284682E-01	1.785203E-03	1.398872E-02
6.879048E-01	2.209708E-01	2.586948E-03	1.451619E-02
7.142549E-01	2.059057E-01	4.240985E-03	1.508465E-02
7.416144E-01	1.619722E-01	1.047550E-02	1.550961E-02
