# I(Q)
#Q (1/A)        I (1/cm)        dI (1/cm)       dQ (1/A)
1.794760E-02	2.512379E+01	8.590356E-01	3.211061E-03
1.863508E-02	2.405620E+01	3.633695E-01	3.239493E-03
1.934890E-02	2.497841E+01	2.401996E-01	3.273277E-03
2.009006E-02	2.431691E+01	1.534291E-01	3.308797E-03
2.085961E-02	2.344977E+01	1.285594E-01	3.377552E-03
2.165864E-02	2.267081E+01	1.091795E-01	3.423516E-03
2.248827E-02	2.200199E+01	9.573142E-02	3.441899E-03
2.334969E-02	2.117062E+01	7.814230E-02	3.502746E-03
2.424410E-02	2.015747E+01	6.684244E-02	3.538493E-03
2.517277E-02	1.938460E+01	5.867416E-02	3.570288E-03
2.613701E-02	1.865988E+01	5.178923E-02	3.596249E-03
2.713819E-02	1.796775E+01	4.601384E-02	3.640984E-03
2.817772E-02	1.739360E+01	4.087536E-02	3.677528E-03
2.925707E-02	1.661411E+01	3.721593E-02	3.672997E-03
3.037777E-02	1.612113E+01	3.282707E-02	3.744495E-03
3.154139E-02	1.553629E+01	3.033619E-02	3.766569E-03
3.274958E-02	1.501936E+01	2.722168E-02	3.809125E-03
3.400406E-02	1.443453E+01	2.522006E-02	3.834152E-03
3.530659E-02	1.391612E+01	2.291754E-02	3.852369E-03
3.665901E-02	1.336085E+01	2.053774E-02	3.905705E-03
3.806323E-02	1.292766E+01	1.925420E-02	3.920975E-03
3.952125E-02	1.247489E+01	1.770506E-02	3.962965E-03
4.103511E-02	1.193688E+01	1.633879E-02	4.005044E-03
4.260696E-02	1.153249E+01	1.514651E-02	4.024200E-03
4.423902E-02	1.111073E+01	1.408029E-02	4.061148E-03
4.593360E-02	1.072962E+01	1.340405E-02	4.049850E-03
4.769309E-02	1.027417E+01	1.220685E-02	4.092347E-03
4.951998E-02	9.816425E+00	1.146779E-02	4.113838E-03
5.141684E-02	9.414198E+00	1.070516E-02	4.126237E-03
5.338637E-02	9.002345E+00	1.007073E-02	4.154428E-03
5.543134E-02	8.612771E+00	9.370701E-03	4.160449E-03
5.755464E-02	8.219069E+00	8.814812E-03	4.174723E-03
5.975927E-02	7.815164E+00	8.204568E-03	4.200923E-03
6.204835E-02	7.439484E+00	7.810062E-03	4.191885E-03
6.442512E-02	7.058521E+00	7.141584E-03	4.223763E-03
6.689292E-02	6.653761E+00	6.711167E-03	4.227190E-03
6.945526E-02	6.307182E+00	6.329734E-03	4.228092E-03
7.211575E-02	5.942161E+00	5.875177E-03	4.242864E-03
7.487815E-02	5.571506E+00	5.451913E-03	4.253528E-03
7.774636E-02	5.233978E+00	5.123528E-03	4.256544E-03
8.072444E-02	4.890710E+00	4.769032E-03	4.263404E-03
8.381659E-02	4.564446E+00	4.416849E-03	4.272513E-03
8.702719E-02	4.240771E+00	4.099906E-03	4.270808E-03
9.036077E-02	3.931869E+00	3.824331E-03	4.282611E-03
9.382205E-02	3.633599E+00	3.515961E-03	4.304798E-03
9.741590E-02	3.355331E+00	3.256502E-03	4.305677E-03
1.011474E-01	3.085269E+00	2.996133E-03	4.318678E-03
1.050219E-01	2.824280E+00	2.765219E-03	4.322895E-03
1.090448E-01	2.565742E+00	2.531060E-03	4.337041E-03
1.132217E-01	2.341110E+00	2.336122E-03	4.346153E-03
1.175587E-01	2.120508E+00	2.137092E-03	4.360116E-03
1.220618E-01	1.914101E+00	1.957605E-03	4.375197E-03
1.267374E-01	1.725093E+00	1.788446E-03	4.385646E-03
1.315920E-01	1.548999E+00	1.633689E-03	4.405075E-03
1.366327E-01	1.383979E+00	1.484142E-03	4.423860E-03
1.418664E-01	1.237652E+00	1.351695E-03	4.439392E-03
1.473006E-01	1.104444E+00	1.226215E-03	4.457290E-03
1.529430E-01	9.822089E-01	1.120639E-03	4.477093E-03
1.588014E-01	8.740756E-01	1.010899E-03	4.504272E-03
1.648843E-01	7.840534E-01	9.252524E-04	4.524072E-03
1.712002E-01	7.010294E-01	8.394781E-04	4.553757E-03
1.777581E-01	6.308399E-01	7.678413E-04	4.576649E-03
1.845671E-01	5.734164E-01	7.023767E-04	4.614428E-03
1.916370E-01	5.260891E-01	6.490477E-04	4.638351E-03
1.989776E-01	4.883173E-01	6.005966E-04	4.673782E-03
2.065995E-01	4.557654E-01	5.581652E-04	4.711036E-03
2.145133E-01	4.285344E-01	5.206985E-04	4.758036E-03
2.227302E-01	4.098511E-01	4.915373E-04	4.815196E-03
2.312619E-01	3.965734E-01	4.680415E-04	4.897078E-03
2.401204E-01	3.866389E-01	4.484523E-04	4.988628E-03
2.493183E-01	3.780065E-01	4.316165E-04	5.093892E-03
2.588684E-01	3.717263E-01	4.181566E-04	5.210445E-03
2.687844E-01	3.672016E-01	4.080229E-04	5.351111E-03
2.790802E-01	3.617178E-01	3.979615E-04	5.511872E-03
2.897703E-01	3.560449E-01	3.881028E-04	5.694380E-03
3.008700E-01	3.516151E-01	3.833536E-04	5.900729E-03
3.123949E-01	3.450010E-01	3.741271E-04	6.136226E-03
3.243612E-01	3.381398E-01	3.675493E-04	6.397045E-03
3.367858E-01	3.301417E-01	3.607680E-04	6.681119E-03
3.496864E-01	3.214703E-01	3.541938E-04	6.976792E-03
3.630812E-01	3.132073E-01	3.496908E-04	7.289217E-03
3.769890E-01	3.049610E-01	3.467672E-04	7.616648E-03
3.914296E-01	2.966735E-01	3.449806E-04	7.954807E-03
4.064234E-01	2.890370E-01	3.451638E-04	8.309129E-03
4.219914E-01	2.820716E-01	3.480720E-04	8.676317E-03
4.381558E-01	2.745712E-01	3.520951E-04	9.054990E-03
4.549394E-01	2.695680E-01	3.625115E-04	9.438781E-03
4.723659E-01	2.645350E-01	3.766975E-04	9.833325E-03
4.904599E-01	2.606359E-01	3.972271E-04	1.022779E-02
5.092470E-01	2.576614E-01	4.255573E-04	1.063714E-02
5.287537E-01	2.538103E-01	4.604460E-04	1.106182E-02
5.490077E-01	2.501492E-01	5.048176E-04	1.151798E-02
5.700374E-01	2.470290E-01	5.680597E-04	1.198655E-02
5.918727E-01	2.435556E-01	6.616281E-04	1.244451E-02
6.145445E-01	2.391283E-01	7.862881E-04	1.293115E-02
6.380846E-01	2.336350E-01	9.652615E-04	1.345131E-02
6.625265E-01	2.287635E-01	1.265020E-03	1.398872E-02
6.879046E-01	2.220041E-01	1.831515E-03	1.451619E-02
7.142548E-01	2.097396E-01	3.025355E-03	1.508465E-02
7.416144E-01	1.710022E-01	7.588584E-03	1.550961E-02
