# I(Q)
#Q (1/A)        I (1/cm)        dI (1/cm)       dQ (1/A)
1.794760E-02	2.528246E+01	9.937963E-01	3.211061E-03
1.863508E-02	2.385166E+01	4.171662E-01	3.239493E-03
1.934890E-02	2.494144E+01	2.766283E-01	3.273277E-03
2.009006E-02	2.431585E+01	1.769323E-01	3.308797E-03
2.085961E-02	2.346400E+01	1.484100E-01	3.377552E-03
2.165864E-02	2.277310E+01	1.262142E-01	3.423516E-03
2.248827E-02	2.202873E+01	1.104485E-01	3.441899E-03
2.334969E-02	2.117971E+01	9.018305E-02	3.502746E-03
2.424410E-02	2.015227E+01	7.703599E-02	3.538493E-03
2.517277E-02	1.939670E+01	6.762681E-02	3.570288E-03
2.613701E-02	1.868021E+01	5.975127E-02	3.596249E-03
2.713819E-02	1.797149E+01	5.310545E-02	3.640984E-03
2.817772E-02	1.744106E+01	4.720651E-02	3.677528E-03
2.925707E-02	1.659075E+01	4.290166E-02	3.672997E-03
3.037777E-02	1.611348E+01	3.785785E-02	3.744495E-03
3.154139E-02	1.553129E+01	3.499566E-02	3.766569E-03
3.274958E-02	1.498686E+01	3.136932E-02	3.809125E-03
3.400406E-02	1.442022E+01	2.907359E-02	3.834152E-03
3.530659E-02	1.387988E+01	2.639538E-02	3.852369E-03
3.665901E-02	1.338227E+01	2.371992E-02	3.905705E-03
3.806323E-02	1.292888E+01	2.221435E-02	3.920975E-03
3.952125E-02	1.247003E+01	2.041957E-02	3.962965E-03
4.103511E-02	1.193588E+01	1.884780E-02	4.005044E-03
4.260696E-02	1.152931E+01	1.747359E-02	4.024200E-03
4.423902E-02	1.110686E+01	1.624195E-02	4.061148E-03
4.593360E-02	1.071672E+01	1.544965E-02	4.049850E-03
4.769309E-02	1.026927E+01	1.407890E-02	4.092347E-03
4.951998E-02	9.813179E+00	1.323258E-02	4.113838E-03
5.141684E-02	9.423253E+00	1.235930E-02	4.126237E-03
5.338637E-02	9.012209E+00	1.162886E-02	4.154428E-03
5.543133E-02	8.601591E+00	1.080827E-02	4.160449E-03
5.755464E-02	8.209946E+00	1.016551E-02	4.174723E-03
5.975927E-02	7.815938E+00	9.467752E-03	4.200923E-03
6.204835E-02	7.440649E+00	9.013136E-03	4.191885E-03
6.442512E-02	7.054438E+00	8.237249E-03	4.223763E-03
6.689292E-02	6.654135E+00	7.746812E-03	4.227190E-03
6.945526E-02	6.306043E+00	7.304711E-03	4.228092E-03
7.211575E-02	5.936757E+00	6.777606E-03	4.242864E-03
7.487815E-02	5.572097E+00	6.293678E-03	4.253528E-03
7.774636E-02	5.230511E+00	5.912360E-03	4.256544E-03
8.072444E-02	4.892628E+00	5.507811E-03	4.263404E-03
8.381659E-02	4.564263E+00	5.098854E-03	4.272513E-03
8.702719E-02	4.243810E+00	4.735733E-03	4.270808E-03
9.036077E-02	3.930414E+00	4.413845E-03	4.282611E-03
9.382204E-02	3.633551E+00	4.059907E-03	4.304798E-03
9.741590E-02	3.357949E+00	3.761096E-03	4.305677E-03
1.011474E-01	3.086031E+00	3.459544E-03	4.318678E-03
1.050219E-01	2.821663E+00	3.191184E-03	4.322895E-03
1.090448E-01	2.566891E+00	2.923516E-03	4.337041E-03
1.132217E-01	2.340954E+00	2.696574E-03	4.346153E-03
1.175587E-01	2.122957E+00	2.468764E-03	4.360116E-03
1.220618E-01	1.914601E+00	2.260676E-03	4.375197E-03
1.267374E-01	1.724103E+00	2.064442E-03	4.385646E-03
1.315920E-01	1.548261E+00	1.885452E-03	4.405075E-03
1.366327E-01	1.383043E+00	1.712612E-03	4.423860E-03
1.418664E-01	1.237083E+00	1.560336E-03	4.439392E-03
1.473006E-01	1.103856E+00	1.415440E-03	4.457290E-03
1.529430E-01	9.808015E-01	1.293077E-03	4.477093E-03
1.588014E-01	8.748176E-01	1.167974E-03	4.504272E-03
1.648843E-01	7.842566E-01	1.068672E-03	4.524072E-03
1.712002E-01	7.017373E-01	9.700746E-04	4.553757E-03
1.777581E-01	6.314287E-01	8.872271E-04	4.576649E-03
1.845671E-01	5.738735E-01	8.115886E-04	4.614428E-03
1.916370E-01	5.262715E-01	7.499922E-04	4.638351E-03
1.989776E-01	4.885390E-01	6.937253E-04	4.673782E-03
2.065995E-01	4.552111E-01	6.443616E-04	4.711036E-03
2.145133E-01	4.284441E-01	6.012623E-04	4.758036E-03
2.227302E-01	4.096069E-01	5.675974E-04	4.815196E-03
2.312619E-01	3.969709E-01	5.409547E-04	4.897078E-03
2.401204E-01	3.866438E-01	5.179581E-04	4.988628E-03
2.493183E-01	3.783659E-01	4.988602E-04	5.093892E-03
2.588684E-01	3.716127E-01	4.829589E-04	5.210445E-03
2.687844E-01	3.673031E-01	4.713359E-04	5.351111E-03
2.790802E-01	3.621819E-01	4.600894E-04	5.511872E-03
2.897703E-01	3.560311E-01	4.482067E-04	5.694380E-03
3.008700E-01	3.512168E-01	4.423605E-04	5.900729E-03
3.123949E-01	3.450782E-01	4.322477E-04	6.136226E-03
3.243612E-01	3.383048E-01	4.244221E-04	6.397045E-03
3.367858E-01	3.305201E-01	4.168830E-04	6.681119E-03
3.496864E-01	3.211729E-01	4.087959E-04	6.976792E-03
3.630812E-01	3.133806E-01	4.038974E-04	7.289217E-03
3.769890E-01	3.050177E-01	4.004497E-04	7.616648E-03
3.914296E-01	2.967474E-01	3.984434E-04	7.954807E-03
4.064234E-01	2.891844E-01	3.988296E-04	8.309129E-03
4.219914E-01	2.820102E-01	4.018822E-04	8.676317E-03
4.381558E-01	2.745921E-01	4.067745E-04	9.054990E-03
4.549394E-01	2.696596E-01	4.188035E-04	9.438781E-03
4.723659E-01	2.646496E-01	4.353228E-04	9.833325E-03
4.904599E-01	2.607476E-01	4.588871E-04	1.022779E-02
5.092470E-01	2.577303E-01	4.913753E-04	1.063714E-02
5.287537E-01	2.541867E-01	5.321265E-04	1.106182E-02
5.490077E-01	2.501545E-01	5.828262E-04	1.151798E-02
5.700374E-01	2.465727E-01	6.552931E-04	1.198655E-02
5.918727E-01	2.435288E-01	7.637560E-04	1.244451E-02
6.145445E-01	2.386406E-01	9.068263E-04	1.293115E-02
6.380846E-01	2.339833E-01	1.115517E-03	1.345131E-02
6.625265E-01	2.283629E-01	1.459013E-03	1.398872E-02
6.879046E-01	2.202511E-01	2.106451E-03	1.451619E-02
7.142548E-01	2.066771E-01	3.469585E-03	1.508465E-02
7.416144E-01	1.633960E-01	8.546950E-03	1.550961E-02
