# I(Q)
#Q (1/A)        I (1/cm)        dI (1/cm)       dQ (1/A)
1.883185E-02	4.343659E+01	4.291512E+00	3.211426E-03
1.954696E-02	5.074286E+01	1.719346E+00	3.224804E-03
2.028923E-02	4.885810E+01	1.007638E+00	3.275731E-03
2.105969E-02	4.805555E+01	8.892912E-01	3.346963E-03
2.185940E-02	4.582335E+01	6.782035E-01	3.362873E-03
2.268949E-02	4.455629E+01	5.389550E-01	3.404948E-03
2.355109E-02	4.213424E+01	4.710589E-01	3.451096E-03
2.444541E-02	4.027671E+01	3.975768E-01	3.493365E-03
2.537370E-02	3.870423E+01	3.274205E-01	3.517822E-03
2.633723E-02	3.746009E+01	2.942444E-01	3.561604E-03
2.733735E-02	3.613593E+01	2.485893E-01	3.573523E-03
2.837545E-02	3.419637E+01	2.193476E-01	3.622497E-03
2.945297E-02	3.232317E+01	1.995950E-01	3.645184E-03
3.057141E-02	3.068871E+01	1.736453E-01	3.687983E-03
3.173232E-02	2.894757E+01	1.559257E-01	3.726116E-03
3.293732E-02	2.686024E+01	1.374876E-01	3.767228E-03
3.418807E-02	2.555005E+01	1.253972E-01	3.799821E-03
3.548632E-02	2.397639E+01	1.129691E-01	3.812026E-03
3.683386E-02	2.223212E+01	1.004850E-01	3.868685E-03
3.823258E-02	2.061456E+01	8.958258E-02	3.901259E-03
3.968441E-02	1.936107E+01	8.304042E-02	3.941807E-03
4.119138E-02	1.792268E+01	7.462256E-02	3.973206E-03
4.275557E-02	1.652897E+01	6.830319E-02	4.005892E-03
4.437915E-02	1.516864E+01	6.122605E-02	4.053375E-03
4.606440E-02	1.393923E+01	5.682386E-02	4.063114E-03
4.781363E-02	1.286582E+01	5.115329E-02	4.097936E-03
4.962929E-02	1.177202E+01	4.737904E-02	4.119907E-03
5.151390E-02	1.081355E+01	4.311129E-02	4.127330E-03
5.347007E-02	9.708021E+00	3.917176E-02	4.153082E-03
5.550053E-02	8.879692E+00	3.582210E-02	4.185448E-03
5.760809E-02	8.017697E+00	3.252670E-02	4.188181E-03
5.979569E-02	7.237325E+00	2.970157E-02	4.206047E-03
6.206635E-02	6.473847E+00	2.741313E-02	4.210714E-03
6.442324E-02	5.785100E+00	2.451845E-02	4.224544E-03
6.686963E-02	5.150798E+00	2.226985E-02	4.236184E-03
6.940892E-02	4.580183E+00	2.038962E-02	4.241782E-03
7.204463E-02	4.036146E+00	1.831608E-02	4.250585E-03
7.478043E-02	3.574799E+00	1.661742E-02	4.264053E-03
7.762012E-02	3.152650E+00	1.520118E-02	4.268424E-03
8.056765E-02	2.801016E+00	1.371497E-02	4.282668E-03
8.362710E-02	2.450027E+00	1.239881E-02	4.285931E-03
8.680273E-02	2.214869E+00	1.139702E-02	4.296015E-03
9.009895E-02	1.973071E+00	1.052029E-02	4.288113E-03
9.352034E-02	1.761118E+00	9.430393E-03	4.307386E-03
9.707166E-02	1.623812E+00	8.790585E-03	4.330786E-03
1.007578E-01	1.463661E+00	8.095951E-03	4.337743E-03
1.045840E-01	1.362658E+00	7.595167E-03	4.346932E-03
1.085554E-01	1.254941E+00	7.042830E-03	4.364146E-03
1.126777E-01	1.196539E+00	6.680218E-03	4.364583E-03
1.169565E-01	1.118984E+00	6.286258E-03	4.372325E-03
1.213977E-01	1.056724E+00	5.907010E-03	4.391569E-03
1.260076E-01	1.010598E+00	5.621722E-03	4.407721E-03
1.307926E-01	9.630528E-01	5.314087E-03	4.416812E-03
1.357593E-01	9.311428E-01	5.057359E-03	4.433935E-03
1.409146E-01	9.029146E-01	4.823355E-03	4.451975E-03
1.462656E-01	8.685185E-01	4.579366E-03	4.475197E-03
1.518199E-01	8.329573E-01	4.339605E-03	4.491989E-03
1.575851E-01	8.120324E-01	4.159472E-03	4.504130E-03
1.635691E-01	7.800799E-01	3.946005E-03	4.527328E-03
1.697805E-01	7.593814E-01	3.779376E-03	4.550494E-03
1.762277E-01	7.327683E-01	3.599395E-03	4.579142E-03
1.829197E-01	7.138232E-01	3.441984E-03	4.603880E-03
1.898658E-01	6.956645E-01	3.283554E-03	4.632575E-03
1.970757E-01	6.761954E-01	3.135849E-03	4.666143E-03
2.045594E-01	6.593807E-01	3.008121E-03	4.694409E-03
2.123273E-01	6.427708E-01	2.883580E-03	4.733037E-03
2.203902E-01	6.291515E-01	2.758796E-03	4.784311E-03
2.287592E-01	6.123945E-01	2.643255E-03	4.841243E-03
2.374460E-01	5.965858E-01	2.520218E-03	4.932573E-03
2.464627E-01	5.866740E-01	2.422387E-03	5.029597E-03
2.558218E-01	5.779190E-01	2.345974E-03	5.138237E-03
2.655363E-01	5.629110E-01	2.258962E-03	5.265106E-03
2.756197E-01	5.483374E-01	2.180364E-03	5.416542E-03
2.860860E-01	5.365919E-01	2.113554E-03	5.581476E-03
2.969498E-01	5.271505E-01	2.050236E-03	5.779080E-03
3.082261E-01	5.133429E-01	1.987682E-03	5.990477E-03
3.199306E-01	5.013009E-01	1.916368E-03	6.234702E-03
3.320795E-01	4.907101E-01	1.853110E-03	6.505534E-03
3.446898E-01	4.770163E-01	1.790123E-03	6.797889E-03
3.577790E-01	4.623379E-01	1.742412E-03	7.099333E-03
3.713652E-01	4.528120E-01	1.713280E-03	7.419130E-03
3.854673E-01	4.367580E-01	1.683575E-03	7.748379E-03
4.001049E-01	4.247878E-01	1.666038E-03	8.095129E-03
4.152984E-01	4.118837E-01	1.659965E-03	8.455452E-03
4.310688E-01	4.027402E-01	1.673985E-03	8.825869E-03
4.474381E-01	3.948462E-01	1.695362E-03	9.214124E-03
4.644289E-01	3.880223E-01	1.746227E-03	9.603487E-03
4.820650E-01	3.823039E-01	1.821915E-03	1.000548E-02
5.003708E-01	3.744206E-01	1.916442E-03	1.040074E-02
5.193718E-01	3.648932E-01	2.052540E-03	1.080114E-02
5.390942E-01	3.618537E-01	2.226449E-03	1.123508E-02
5.595656E-01	3.523010E-01	2.437144E-03	1.169578E-02
5.808144E-01	3.543101E-01	2.774395E-03	1.216013E-02
6.028701E-01	3.526534E-01	3.249740E-03	1.262189E-02
6.257633E-01	3.376470E-01	3.814790E-03	1.312731E-02
6.495259E-01	3.473479E-01	4.856291E-03	1.364712E-02
6.741908E-01	3.366487E-01	6.359183E-03	1.418013E-02
6.997923E-01	3.481071E-01	9.516959E-03	1.472722E-02
7.263660E-01	3.357465E-01	1.632162E-02	1.528995E-02
7.539488E-01	3.293693E-01	4.806039E-02	1.572127E-02
