# I(Q)
#Q (1/A)        I (1/cm)        dI (1/cm)       dQ (1/A)
1.883185E-02	1.742262E+01	1.965136E+00	3.211426E-03
1.954696E-02	1.894507E+01	7.616458E-01	3.224804E-03
2.028923E-02	1.920619E+01	4.536863E-01	3.275732E-03
2.105969E-02	1.853426E+01	3.981704E-01	3.346963E-03
2.185940E-02	1.757648E+01	3.024152E-01	3.362873E-03
2.268949E-02	1.691900E+01	2.399894E-01	3.404948E-03
2.355109E-02	1.611949E+01	2.101038E-01	3.451096E-03
2.444541E-02	1.533165E+01	1.758288E-01	3.493365E-03
2.537370E-02	1.487948E+01	1.468331E-01	3.517822E-03
2.633723E-02	1.386817E+01	1.284562E-01	3.561604E-03
2.733735E-02	1.319631E+01	1.085325E-01	3.573523E-03
2.837545E-02	1.225008E+01	9.433746E-02	3.622498E-03
2.945297E-02	1.161891E+01	8.609555E-02	3.645184E-03
3.057141E-02	1.075930E+01	7.377816E-02	3.687983E-03
3.173232E-02	1.014319E+01	6.634667E-02	3.726116E-03
3.293732E-02	9.427923E+00	5.864971E-02	3.767228E-03
3.418807E-02	8.702940E+00	5.273116E-02	3.799821E-03
3.548632E-02	7.978741E+00	4.682690E-02	3.812026E-03
3.683386E-02	7.309667E+00	4.148913E-02	3.868685E-03
3.823258E-02	6.794271E+00	3.704296E-02	3.901259E-03
3.968441E-02	6.195519E+00	3.371464E-02	3.941808E-03
4.119138E-02	5.665716E+00	3.009441E-02	3.973206E-03
4.275557E-02	5.102344E+00	2.719120E-02	4.005893E-03
4.437916E-02	4.671463E+00	2.449192E-02	4.053375E-03
4.606440E-02	4.248534E+00	2.264165E-02	4.063115E-03
4.781363E-02	3.809088E+00	2.002650E-02	4.097936E-03
4.962929E-02	3.458569E+00	1.843264E-02	4.119908E-03
5.151390E-02	3.127817E+00	1.658203E-02	4.127331E-03
5.347008E-02	2.840208E+00	1.524688E-02	4.153082E-03
5.550053E-02	2.549724E+00	1.380542E-02	4.185449E-03
5.760810E-02	2.285930E+00	1.254639E-02	4.188182E-03
5.979569E-02	2.066522E+00	1.144376E-02	4.206048E-03
6.206635E-02	1.853033E+00	1.051345E-02	4.210714E-03
6.442324E-02	1.689679E+00	9.532863E-03	4.224544E-03
6.686963E-02	1.538512E+00	8.766425E-03	4.236184E-03
6.940892E-02	1.405813E+00	8.100767E-03	4.241782E-03
7.204463E-02	1.284045E+00	7.454789E-03	4.250585E-03
7.478044E-02	1.184671E+00	6.902253E-03	4.264053E-03
7.762013E-02	1.103384E+00	6.495970E-03	4.268425E-03
8.056765E-02	1.050720E+00	6.079288E-03	4.282668E-03
8.362710E-02	9.874738E-01	5.706555E-03	4.285932E-03
8.680273E-02	9.352972E-01	5.347674E-03	4.296015E-03
9.009896E-02	8.946472E-01	5.119625E-03	4.288113E-03
9.352035E-02	8.609393E-01	4.768751E-03	4.307386E-03
9.707166E-02	8.364762E-01	4.538311E-03	4.330786E-03
1.007578E-01	8.155342E-01	4.346908E-03	4.337743E-03
1.045840E-01	7.933809E-01	4.142798E-03	4.346932E-03
1.085554E-01	7.838802E-01	3.965157E-03	4.364147E-03
1.126777E-01	7.679115E-01	3.799072E-03	4.364583E-03
1.169565E-01	7.595355E-01	3.663779E-03	4.372326E-03
1.213977E-01	7.456610E-01	3.508518E-03	4.391570E-03
1.260077E-01	7.287160E-01	3.341117E-03	4.407722E-03
1.307926E-01	7.227253E-01	3.218146E-03	4.416812E-03
1.357593E-01	7.109371E-01	3.078443E-03	4.433935E-03
1.409146E-01	7.111911E-01	2.967793E-03	4.451976E-03
1.462657E-01	6.973720E-01	2.842110E-03	4.475198E-03
1.518199E-01	6.890890E-01	2.713426E-03	4.491990E-03
1.575851E-01	6.813786E-01	2.610117E-03	4.504101E-03
1.635692E-01	6.725033E-01	2.503899E-03	4.527357E-03
1.697805E-01	6.686073E-01	2.409041E-03	4.550495E-03
1.762277E-01	6.529560E-01	2.291716E-03	4.579142E-03
1.829197E-01	6.498116E-01	2.210401E-03	4.603880E-03
1.898658E-01	6.479411E-01	2.123189E-03	4.632575E-03
1.970757E-01	6.427756E-01	2.037869E-03	4.666144E-03
2.045594E-01	6.335141E-01	1.957943E-03	4.694409E-03
2.123273E-01	6.258760E-01	1.876297E-03	4.733038E-03
2.203902E-01	6.244862E-01	1.805096E-03	4.784311E-03
2.287592E-01	6.209814E-01	1.742800E-03	4.841244E-03
2.374460E-01	6.130673E-01	1.669345E-03	4.932574E-03
2.464628E-01	6.094747E-01	1.617509E-03	5.029597E-03
2.558219E-01	6.001202E-01	1.564881E-03	5.138237E-03
2.655364E-01	5.976771E-01	1.522146E-03	5.265106E-03
2.756198E-01	5.940654E-01	1.488900E-03	5.416542E-03
2.860861E-01	5.793093E-01	1.443807E-03	5.581476E-03
2.969498E-01	5.751681E-01	1.415332E-03	5.779081E-03
3.082261E-01	5.631951E-01	1.385349E-03	5.990478E-03
3.199306E-01	5.539002E-01	1.352853E-03	6.234703E-03
3.320795E-01	5.458605E-01	1.327074E-03	6.505535E-03
3.446898E-01	5.314569E-01	1.290700E-03	6.797890E-03
3.577790E-01	5.172574E-01	1.267197E-03	7.099333E-03
3.713652E-01	5.074937E-01	1.251814E-03	7.419131E-03
3.854673E-01	4.946682E-01	1.241458E-03	7.748380E-03
4.001049E-01	4.796027E-01	1.231507E-03	8.095130E-03
4.152984E-01	4.701420E-01	1.236720E-03	8.455453E-03
4.310688E-01	4.618846E-01	1.254465E-03	8.825870E-03
4.474381E-01	4.529230E-01	1.274655E-03	9.214125E-03
4.644290E-01	4.444322E-01	1.313092E-03	9.603488E-03
4.820651E-01	4.369054E-01	1.366135E-03	1.000548E-02
5.003709E-01	4.327495E-01	1.451711E-03	1.040074E-02
5.193718E-01	4.239902E-01	1.557749E-03	1.080114E-02
5.390943E-01	4.193699E-01	1.692968E-03	1.123508E-02
5.595657E-01	4.160427E-01	1.866768E-03	1.169578E-02
5.808145E-01	4.142413E-01	2.119803E-03	1.216013E-02
6.028702E-01	4.090512E-01	2.477151E-03	1.262190E-02
6.257634E-01	4.081863E-01	2.971274E-03	1.312731E-02
6.495259E-01	4.075710E-01	3.721993E-03	1.364712E-02
6.741908E-01	4.128072E-01	4.987088E-03	1.418013E-02
6.997924E-01	4.074013E-01	7.345784E-03	1.472722E-02
7.263661E-01	4.211234E-01	1.303147E-02	1.528995E-02
7.539489E-01	3.863577E-01	3.654956E-02	1.572127E-02
