# I(Q)
#Q (1/A)        I (1/cm)        dI (1/cm)       dQ (1/A)
2.007177E-02	4.732985E+01	2.348754E+00	3.186397E-03
2.081822E-02	4.569733E+01	1.237389E+00	3.235287E-03
2.159243E-02	4.315220E+01	9.118289E-01	3.297359E-03
2.239543E-02	4.026583E+01	7.246372E-01	3.354958E-03
2.322829E-02	3.676906E+01	5.580991E-01	3.373032E-03
2.409212E-02	3.488530E+01	4.793273E-01	3.430041E-03
2.498808E-02	3.188833E+01	3.863133E-01	3.449818E-03
2.591736E-02	2.968394E+01	3.061610E-01	3.458069E-03
2.688120E-02	2.825295E+01	2.617157E-01	3.471244E-03
2.788088E-02	2.557371E+01	2.128192E-01	3.531517E-03
2.891774E-02	2.420671E+01	1.886317E-01	3.547636E-03
2.999316E-02	2.192192E+01	1.617694E-01	3.608077E-03
3.110858E-02	1.996105E+01	1.395782E-01	3.615077E-03
3.226547E-02	1.850513E+01	1.203067E-01	3.678848E-03
3.346539E-02	1.679409E+01	1.071878E-01	3.710812E-03
3.470993E-02	1.520713E+01	9.563415E-02	3.752759E-03
3.600076E-02	1.394681E+01	8.317252E-02	3.788706E-03
3.733958E-02	1.285737E+01	7.510742E-02	3.834545E-03
3.872820E-02	1.139272E+01	6.628429E-02	3.875873E-03
4.016846E-02	1.054228E+01	5.996241E-02	3.914328E-03
4.166229E-02	9.489165E+00	5.403535E-02	3.952998E-03
4.321166E-02	8.489024E+00	4.791315E-02	4.009132E-03
4.481866E-02	7.776626E+00	4.400064E-02	4.022915E-03
4.648541E-02	7.022259E+00	3.958745E-02	4.056850E-03
4.821415E-02	6.342579E+00	3.591527E-02	4.091248E-03
5.000719E-02	5.664933E+00	3.249791E-02	4.115188E-03
5.186690E-02	5.149556E+00	2.920459E-02	4.152455E-03
5.379577E-02	4.597575E+00	2.677935E-02	4.152413E-03
5.579638E-02	4.136811E+00	2.426052E-02	4.189237E-03
5.787139E-02	3.727317E+00	2.215563E-02	4.199254E-03
6.002356E-02	3.365635E+00	2.031636E-02	4.207206E-03
6.225577E-02	3.016364E+00	1.848293E-02	4.213302E-03
6.457100E-02	2.710376E+00	1.685217E-02	4.225094E-03
6.697232E-02	2.434998E+00	1.537394E-02	4.231361E-03
6.946295E-02	2.195281E+00	1.418939E-02	4.240789E-03
7.204620E-02	1.974170E+00	1.294921E-02	4.245235E-03
7.472552E-02	1.781323E+00	1.190603E-02	4.242462E-03
7.750449E-02	1.604995E+00	1.091570E-02	4.251490E-03
8.038679E-02	1.468368E+00	1.017112E-02	4.255915E-03
8.337629E-02	1.323342E+00	9.325259E-03	4.262249E-03
8.647697E-02	1.198096E+00	8.599381E-03	4.278342E-03
8.969295E-02	1.107657E+00	8.102479E-03	4.272562E-03
9.302853E-02	1.018074E+00	7.475006E-03	4.281599E-03
9.648816E-02	9.670956E-01	7.059270E-03	4.295027E-03
1.000765E-01	8.796165E-01	6.587143E-03	4.304248E-03
1.037982E-01	8.201125E-01	6.167893E-03	4.311494E-03
1.076583E-01	7.946773E-01	5.903280E-03	4.330869E-03
1.116620E-01	7.418481E-01	5.604056E-03	4.336641E-03
1.158146E-01	7.110781E-01	5.302706E-03	4.344190E-03
1.201216E-01	6.847222E-01	5.058177E-03	4.358785E-03
1.245888E-01	6.570660E-01	4.827506E-03	4.373459E-03
1.292222E-01	6.287025E-01	4.603431E-03	4.388266E-03
1.340278E-01	6.147154E-01	4.404489E-03	4.404474E-03
1.390121E-01	6.043514E-01	4.239409E-03	4.424078E-03
1.441818E-01	5.916238E-01	4.043973E-03	4.447424E-03
1.495438E-01	5.721709E-01	3.876062E-03	4.462820E-03
1.551052E-01	5.706714E-01	3.745781E-03	4.482477E-03
1.608734E-01	5.581045E-01	3.588687E-03	4.505121E-03
1.668561E-01	5.522040E-01	3.458205E-03	4.531761E-03
1.730613E-01	5.439231E-01	3.330970E-03	4.559264E-03
1.794972E-01	5.359141E-01	3.200463E-03	4.587490E-03
1.861726E-01	5.273818E-01	3.083874E-03	4.619443E-03
1.930961E-01	5.254281E-01	2.978688E-03	4.651629E-03
2.002771E-01	5.188487E-01	2.865395E-03	4.683784E-03
2.077252E-01	5.134057E-01	2.766139E-03	4.713116E-03
2.154503E-01	5.096211E-01	2.668468E-03	4.761686E-03
2.234627E-01	5.111596E-01	2.584545E-03	4.807568E-03
2.317730E-01	5.103903E-01	2.485720E-03	4.882419E-03
2.403924E-01	5.119752E-01	2.401581E-03	4.971827E-03
2.493323E-01	5.066923E-01	2.322644E-03	5.074112E-03
2.586047E-01	5.096607E-01	2.250558E-03	5.187214E-03
2.682220E-01	5.084932E-01	2.184575E-03	5.328803E-03
2.781968E-01	5.090507E-01	2.125632E-03	5.480694E-03
2.885427E-01	5.047072E-01	2.070739E-03	5.654828E-03
2.992733E-01	5.020660E-01	2.015355E-03	5.851103E-03
3.104029E-01	5.004424E-01	1.959618E-03	6.068462E-03
3.219465E-01	4.954678E-01	1.905740E-03	6.312909E-03
3.339193E-01	4.907522E-01	1.851952E-03	6.584903E-03
3.463374E-01	4.795057E-01	1.793423E-03	6.870294E-03
3.592173E-01	4.728068E-01	1.762449E-03	7.168560E-03
3.725762E-01	4.608066E-01	1.730372E-03	7.481216E-03
3.864319E-01	4.502053E-01	1.715226E-03	7.802719E-03
4.008029E-01	4.417275E-01	1.709743E-03	8.142203E-03
4.157084E-01	4.258586E-01	1.695742E-03	8.496342E-03
4.311681E-01	4.161488E-01	1.704387E-03	8.864088E-03
4.472028E-01	4.080146E-01	1.740207E-03	9.239630E-03
4.638338E-01	4.006990E-01	1.781024E-03	9.624258E-03
4.810832E-01	3.903310E-01	1.844061E-03	1.000807E-02
4.989742E-01	3.863399E-01	1.958672E-03	1.039485E-02
5.175305E-01	3.835641E-01	2.112699E-03	1.078693E-02
5.367769E-01	3.752256E-01	2.288015E-03	1.120544E-02
5.567391E-01	3.713399E-01	2.516515E-03	1.164500E-02
5.774436E-01	3.723754E-01	2.882288E-03	1.208770E-02
5.989181E-01	3.639103E-01	3.320858E-03	1.254290E-02
6.211912E-01	3.687376E-01	3.997615E-03	1.302696E-02
6.442926E-01	3.551279E-01	4.866252E-03	1.354305E-02
6.682532E-01	3.575721E-01	6.483667E-03	1.406148E-02
6.931048E-01	3.506255E-01	9.271795E-03	1.459450E-02
7.188806E-01	3.193932E-01	1.547895E-02	1.514328E-02
7.456150E-01	3.902199E-01	4.853186E-02	1.554160E-02
