# I(Q)
#Q (1/A)        I (1/cm)        dI (1/cm)       dQ (1/A)
1.205675E-02	1.006652E+03	3.925146E+01	2.419544E-03
1.250746E-02	9.945055E+02	1.174804E+01	2.435207E-03
1.297501E-02	1.016804E+03	7.241788E+00	2.478643E-03
1.346005E-02	9.682850E+02	5.520002E+00	2.525520E-03
1.396322E-02	9.272357E+02	4.251933E+00	2.556878E-03
1.448519E-02	8.882372E+02	3.627756E+00	2.590611E-03
1.502668E-02	8.546677E+02	3.028801E+00	2.607907E-03
1.558841E-02	8.076336E+02	2.586805E+00	2.653114E-03
1.617114E-02	7.637555E+02	2.124788E+00	2.669878E-03
1.677566E-02	7.237401E+02	1.836196E+00	2.699391E-03
1.740277E-02	6.807261E+02	1.603141E+00	2.719064E-03
1.805332E-02	6.414042E+02	1.436642E+00	2.743504E-03
1.872819E-02	5.986852E+02	1.234310E+00	2.788432E-03
1.942830E-02	5.635999E+02	1.138886E+00	2.799396E-03
2.015457E-02	5.299207E+02	9.863917E-01	2.842350E-03
2.090799E-02	4.969562E+02	9.068805E-01	2.858290E-03
2.168958E-02	4.583573E+02	7.875831E-01	2.889232E-03
2.250038E-02	4.221216E+02	7.152963E-01	2.904584E-03
2.334150E-02	3.918397E+02	6.356586E-01	2.939560E-03
2.421405E-02	3.602310E+02	5.703864E-01	2.962713E-03
2.511923E-02	3.290193E+02	5.184009E-01	2.994995E-03
2.605824E-02	3.020992E+02	4.635008E-01	3.018499E-03
2.703236E-02	2.743760E+02	4.187864E-01	3.042687E-03
2.804289E-02	2.502088E+02	3.836192E-01	3.054909E-03
2.909119E-02	2.263465E+02	3.454310E-01	3.075080E-03
3.017869E-02	2.043964E+02	3.130189E-01	3.086120E-03
3.130683E-02	1.839109E+02	2.840283E-01	3.105859E-03
3.247715E-02	1.646271E+02	2.563084E-01	3.114481E-03
3.369122E-02	1.467873E+02	2.313928E-01	3.130910E-03
3.495067E-02	1.303834E+02	2.102426E-01	3.140536E-03
3.625721E-02	1.154919E+02	1.891996E-01	3.150983E-03
3.761258E-02	1.020044E+02	1.714265E-01	3.148795E-03
3.901863E-02	8.958413E+01	1.536935E-01	3.159573E-03
4.047723E-02	7.841766E+01	1.388504E-01	3.164483E-03
4.199036E-02	6.849260E+01	1.245269E-01	3.169354E-03
4.356005E-02	5.941377E+01	1.117608E-01	3.174115E-03
4.518842E-02	5.144697E+01	1.007208E-01	3.179046E-03
4.687767E-02	4.441317E+01	8.943776E-02	3.187286E-03
4.863006E-02	3.814734E+01	8.001989E-02	3.185998E-03
5.044796E-02	3.274456E+01	7.166411E-02	3.189635E-03
5.233381E-02	2.786990E+01	6.344227E-02	3.194829E-03
5.429017E-02	2.364373E+01	5.662245E-02	3.194296E-03
5.631966E-02	2.006747E+01	5.017752E-02	3.197682E-03
5.842501E-02	1.706339E+01	4.450473E-02	3.204052E-03
6.060907E-02	1.449321E+01	3.963247E-02	3.206948E-03
6.287477E-02	1.228454E+01	3.519120E-02	3.210536E-03
6.522517E-02	1.037282E+01	3.103236E-02	3.216147E-03
6.766343E-02	8.817739E+00	2.756174E-02	3.222292E-03
7.019284E-02	7.460984E+00	2.449449E-02	3.227214E-03
7.281680E-02	6.337971E+00	2.172591E-02	3.233336E-03
7.553886E-02	5.449438E+00	1.949505E-02	3.239194E-03
7.836267E-02	4.705441E+00	1.746708E-02	3.246258E-03
8.129204E-02	4.073799E+00	1.572294E-02	3.252462E-03
8.433092E-02	3.505341E+00	1.409898E-02	3.259082E-03
8.748340E-02	3.107894E+00	1.287956E-02	3.269091E-03
9.075372E-02	2.728642E+00	1.167351E-02	3.280772E-03
9.414630E-02	2.377632E+00	1.056687E-02	3.293889E-03
9.766569E-02	2.117302E+00	9.745071E-03	3.303354E-03
1.013167E-01	1.869748E+00	8.938445E-03	3.312789E-03
1.051041E-01	1.679550E+00	8.276816E-03	3.325549E-03
1.090331E-01	1.482098E+00	7.666354E-03	3.337395E-03
1.131090E-01	1.322821E+00	7.121290E-03	3.349511E-03
1.173373E-01	1.203553E+00	6.667935E-03	3.364539E-03
1.217236E-01	1.079262E+00	6.243687E-03	3.381306E-03
1.262739E-01	9.727117E-01	5.858359E-03	3.406254E-03
1.309943E-01	8.710953E-01	5.518691E-03	3.431896E-03
1.358912E-01	7.979254E-01	5.244293E-03	3.465395E-03
1.409711E-01	7.231816E-01	5.003042E-03	3.498562E-03
1.462409E-01	6.530932E-01	4.769367E-03	3.542103E-03
1.517077E-01	5.982802E-01	4.562533E-03	3.592390E-03
1.573789E-01	5.484274E-01	4.368517E-03	3.653721E-03
1.632621E-01	5.005480E-01	4.198510E-03	3.717208E-03
1.693652E-01	4.643171E-01	4.057164E-03	3.793624E-03
1.756964E-01	4.284358E-01	3.905051E-03	3.885542E-03
1.822643E-01	4.020021E-01	3.779535E-03	3.989231E-03
1.890778E-01	3.662065E-01	3.637319E-03	4.099462E-03
1.961459E-01	3.439161E-01	3.521356E-03	4.226483E-03
2.034783E-01	3.252224E-01	3.394809E-03	4.369097E-03
2.110848E-01	3.067597E-01	3.259116E-03	4.526531E-03
2.189756E-01	2.921088E-01	3.133747E-03	4.691286E-03
2.271614E-01	2.720712E-01	3.028892E-03	4.866838E-03
2.356532E-01	2.545152E-01	2.953598E-03	5.043804E-03
2.444624E-01	2.457429E-01	2.907050E-03	5.226469E-03
2.536010E-01	2.336657E-01	2.886878E-03	5.413316E-03
2.630811E-01	2.279216E-01	2.899667E-03	5.601732E-03
2.729157E-01	2.153302E-01	2.928602E-03	5.798177E-03
2.831179E-01	2.062445E-01	2.970258E-03	6.001406E-03
2.937015E-01	2.037596E-01	3.056221E-03	6.211504E-03
3.046807E-01	2.008397E-01	3.192258E-03	6.419627E-03
3.160703E-01	1.952660E-01	3.385869E-03	6.637453E-03
3.278858E-01	1.853361E-01	3.649759E-03	6.857066E-03
3.401429E-01	1.825615E-01	3.978335E-03	7.093326E-03
3.528581E-01	1.746185E-01	4.454843E-03	7.327877E-03
3.660488E-01	1.796594E-01	5.269373E-03	7.561095E-03
3.797325E-01	1.774115E-01	6.243914E-03	7.816245E-03
3.939277E-01	1.671448E-01	7.595637E-03	8.089195E-03
4.086536E-01	1.571666E-01	9.783551E-03	8.374722E-03
4.239300E-01	1.561581E-01	1.424025E-02	8.647285E-03
4.397775E-01	1.567906E-01	2.429444E-02	8.937107E-03
4.562173E-01	2.242187E-01	7.480330E-02	9.158590E-03
