# I(Q)
#Q (1/A)        I (1/cm)        dI (1/cm)       dQ (1/A)
1.205675E-02	1.185788E+02	6.770190E+00	2.419544E-03
1.250746E-02	1.103087E+02	1.953024E+00	2.435207E-03
1.297501E-02	1.088208E+02	1.185237E+00	2.478643E-03
1.346005E-02	9.893996E+01	8.869745E-01	2.525520E-03
1.396322E-02	8.934720E+01	6.623282E-01	2.556878E-03
1.448519E-02	8.139533E+01	5.524856E-01	2.590611E-03
1.502668E-02	7.458854E+01	4.505733E-01	2.607907E-03
1.558841E-02	6.722283E+01	3.746340E-01	2.653113E-03
1.617114E-02	6.015670E+01	2.990744E-01	2.669878E-03
1.677565E-02	5.486959E+01	2.540168E-01	2.699391E-03
1.740277E-02	4.929055E+01	2.165487E-01	2.719064E-03
1.805332E-02	4.437763E+01	1.900674E-01	2.743504E-03
1.872819E-02	3.984271E+01	1.600763E-01	2.788432E-03
1.942829E-02	3.635891E+01	1.453609E-01	2.799396E-03
2.015457E-02	3.281185E+01	1.232908E-01	2.842350E-03
2.090799E-02	2.989169E+01	1.118286E-01	2.858290E-03
2.168958E-02	2.644449E+01	9.503186E-02	2.889232E-03
2.250038E-02	2.361624E+01	8.523017E-02	2.904584E-03
2.334150E-02	2.122625E+01	7.437931E-02	2.939560E-03
2.421405E-02	1.892742E+01	6.569835E-02	2.962713E-03
2.511923E-02	1.690727E+01	5.900448E-02	2.994995E-03
2.605824E-02	1.504809E+01	5.197671E-02	3.018499E-03
2.703236E-02	1.331067E+01	4.640438E-02	3.042687E-03
2.804289E-02	1.175102E+01	4.178166E-02	3.054909E-03
2.909119E-02	1.039991E+01	3.721275E-02	3.075080E-03
3.017869E-02	9.213633E+00	3.343362E-02	3.086120E-03
3.130683E-02	8.046889E+00	2.985674E-02	3.105859E-03
3.247715E-02	7.123810E+00	2.685680E-02	3.114481E-03
3.369122E-02	6.225290E+00	2.401862E-02	3.130910E-03
3.495067E-02	5.461174E+00	2.162389E-02	3.140536E-03
3.625721E-02	4.767113E+00	1.941191E-02	3.150983E-03
3.761258E-02	4.100762E+00	1.732602E-02	3.148795E-03
3.901862E-02	3.597603E+00	1.551917E-02	3.159573E-03
4.047723E-02	3.131501E+00	1.397838E-02	3.164483E-03
4.199036E-02	2.738997E+00	1.253405E-02	3.169354E-03
4.356005E-02	2.361853E+00	1.124405E-02	3.174115E-03
4.518842E-02	2.036364E+00	1.006399E-02	3.179046E-03
4.687766E-02	1.800289E+00	9.089867E-03	3.187286E-03
4.863006E-02	1.580791E+00	8.217378E-03	3.185998E-03
5.044796E-02	1.400931E+00	7.484949E-03	3.189635E-03
5.233381E-02	1.239614E+00	6.756234E-03	3.194829E-03
5.429017E-02	1.111817E+00	6.206996E-03	3.194296E-03
5.631965E-02	1.003446E+00	5.683705E-03	3.197682E-03
5.842501E-02	9.096259E-01	5.223586E-03	3.204052E-03
6.060907E-02	8.401617E-01	4.850742E-03	3.206948E-03
6.287477E-02	7.770309E-01	4.527020E-03	3.210536E-03
6.522517E-02	7.163789E-01	4.164610E-03	3.216147E-03
6.766343E-02	6.791905E-01	3.925820E-03	3.222292E-03
7.019284E-02	6.341754E-01	3.684961E-03	3.227214E-03
7.281680E-02	6.008264E-01	3.462383E-03	3.233336E-03
7.553886E-02	5.700598E-01	3.274623E-03	3.239194E-03
7.836267E-02	5.392332E-01	3.079012E-03	3.246258E-03
8.129204E-02	5.148066E-01	2.910999E-03	3.252462E-03
8.433092E-02	4.875555E-01	2.749835E-03	3.259082E-03
8.748339E-02	4.606988E-01	2.598564E-03	3.269091E-03
9.075372E-02	4.420566E-01	2.462938E-03	3.280772E-03
9.414629E-02	4.171670E-01	2.318124E-03	3.293889E-03
9.766569E-02	3.958888E-01	2.196537E-03	3.303354E-03
1.013167E-01	3.776338E-01	2.087704E-03	3.312789E-03
1.051041E-01	3.620400E-01	1.983923E-03	3.325549E-03
1.090331E-01	3.506892E-01	1.895673E-03	3.337395E-03
1.131090E-01	3.383448E-01	1.812085E-03	3.349511E-03
1.173373E-01	3.283405E-01	1.730792E-03	3.364539E-03
1.217236E-01	3.212684E-01	1.656227E-03	3.381306E-03
1.262739E-01	3.188716E-01	1.592781E-03	3.406254E-03
1.309943E-01	3.159897E-01	1.536822E-03	3.431896E-03
1.358912E-01	3.127158E-01	1.479725E-03	3.465395E-03
1.409711E-01	3.121823E-01	1.438881E-03	3.498562E-03
1.462409E-01	3.117403E-01	1.395134E-03	3.542103E-03
1.517077E-01	3.109822E-01	1.355182E-03	3.592390E-03
1.573789E-01	3.148460E-01	1.322975E-03	3.653721E-03
1.632621E-01	3.125555E-01	1.288781E-03	3.717208E-03
1.693652E-01	3.133202E-01	1.263258E-03	3.793624E-03
1.756964E-01	3.135052E-01	1.240060E-03	3.885542E-03
1.822643E-01	3.126874E-01	1.219925E-03	3.989231E-03
1.890778E-01	3.105455E-01	1.196975E-03	4.099462E-03
1.961459E-01	3.097900E-01	1.183025E-03	4.226483E-03
2.034783E-01	3.077719E-01	1.166190E-03	4.369097E-03
2.110848E-01	3.046359E-01	1.149732E-03	4.526530E-03
2.189756E-01	2.984035E-01	1.131906E-03	4.691286E-03
2.271614E-01	2.984816E-01	1.130659E-03	4.866838E-03
2.356532E-01	2.900952E-01	1.122376E-03	5.043804E-03
2.444624E-01	2.860542E-01	1.126246E-03	5.226469E-03
2.536010E-01	2.787091E-01	1.133949E-03	5.413316E-03
2.630811E-01	2.749094E-01	1.156783E-03	5.601732E-03
2.729157E-01	2.694939E-01	1.183722E-03	5.798177E-03
2.831179E-01	2.640007E-01	1.217563E-03	6.001406E-03
2.937015E-01	2.601343E-01	1.271271E-03	6.211504E-03
3.046807E-01	2.535641E-01	1.334349E-03	6.419627E-03
3.160703E-01	2.499687E-01	1.427711E-03	6.637453E-03
3.278857E-01	2.488568E-01	1.563200E-03	6.857065E-03
3.401428E-01	2.448028E-01	1.716305E-03	7.093326E-03
3.528581E-01	2.410665E-01	1.942695E-03	7.327877E-03
3.660488E-01	2.413298E-01	2.292522E-03	7.561094E-03
3.797325E-01	2.365408E-01	2.723518E-03	7.816245E-03
3.939277E-01	2.344280E-01	3.344113E-03	8.089194E-03
4.086536E-01	2.292344E-01	4.346032E-03	8.374722E-03
4.239300E-01	2.284585E-01	6.376359E-03	8.647284E-03
4.397775E-01	2.197204E-01	1.086528E-02	8.937107E-03
4.562173E-01	1.851824E-01	2.996739E-02	9.158590E-03
