# I(Q)
#Q (1/A)        I (1/cm)        dI (1/cm)       dQ (1/A)
1.205675E-02	5.400313E+01	4.432596E+00	2.419544E-03
1.250746E-02	4.907842E+01	1.266519E+00	2.435207E-03
1.297502E-02	5.024654E+01	7.847686E-01	2.478643E-03
1.346005E-02	4.548916E+01	5.833956E-01	2.525520E-03
1.396322E-02	4.005029E+01	4.298215E-01	2.556878E-03
1.448519E-02	3.709360E+01	3.615688E-01	2.590611E-03
1.502668E-02	3.385998E+01	2.938050E-01	2.607907E-03
1.558841E-02	3.008692E+01	2.419618E-01	2.653113E-03
1.617114E-02	2.737793E+01	1.958150E-01	2.669878E-03
1.677566E-02	2.492106E+01	1.655631E-01	2.699391E-03
1.740277E-02	2.255188E+01	1.417413E-01	2.719064E-03
1.805332E-02	2.058316E+01	1.250168E-01	2.743504E-03
1.872820E-02	1.850750E+01	1.054656E-01	2.788432E-03
1.942830E-02	1.701884E+01	9.601124E-02	2.799396E-03
2.015457E-02	1.564251E+01	8.236635E-02	2.842350E-03
2.090799E-02	1.423652E+01	7.441171E-02	2.858290E-03
2.168958E-02	1.274283E+01	6.375249E-02	2.889232E-03
2.250038E-02	1.146346E+01	5.731351E-02	2.904584E-03
2.334150E-02	1.037013E+01	5.011940E-02	2.939560E-03
2.421406E-02	9.325258E+00	4.454116E-02	2.962713E-03
2.511923E-02	8.475431E+00	4.044110E-02	2.994995E-03
2.605824E-02	7.506390E+00	3.541844E-02	3.018499E-03
2.703236E-02	6.849623E+00	3.213371E-02	3.042687E-03
2.804289E-02	6.218594E+00	2.929177E-02	3.054909E-03
2.909119E-02	5.594342E+00	2.640132E-02	3.075080E-03
3.017869E-02	5.097291E+00	2.400560E-02	3.086120E-03
3.130683E-02	4.598936E+00	2.182648E-02	3.105859E-03
3.247715E-02	4.150408E+00	1.977551E-02	3.114481E-03
3.369122E-02	3.760502E+00	1.799317E-02	3.130909E-03
3.495068E-02	3.402822E+00	1.646792E-02	3.140536E-03
3.625721E-02	3.106615E+00	1.507170E-02	3.150983E-03
3.761258E-02	2.795828E+00	1.377532E-02	3.148795E-03
3.901863E-02	2.594114E+00	1.271103E-02	3.159572E-03
4.047723E-02	2.381880E+00	1.174326E-02	3.164483E-03
4.199036E-02	2.195585E+00	1.083004E-02	3.169354E-03
4.356005E-02	2.048343E+00	1.007230E-02	3.174115E-03
4.518842E-02	1.914442E+00	9.434302E-03	3.179046E-03
4.687767E-02	1.797816E+00	8.736517E-03	3.187286E-03
4.863006E-02	1.685186E+00	8.155182E-03	3.185998E-03
5.044796E-02	1.608817E+00	7.701476E-03	3.189635E-03
5.233382E-02	1.537226E+00	7.257597E-03	3.194829E-03
5.429017E-02	1.475583E+00	6.880630E-03	3.194296E-03
5.631966E-02	1.427065E+00	6.502388E-03	3.197682E-03
5.842501E-02	1.405497E+00	6.231899E-03	3.204052E-03
6.060907E-02	1.359498E+00	5.900065E-03	3.206948E-03
6.287477E-02	1.325017E+00	5.610001E-03	3.210536E-03
6.522517E-02	1.297989E+00	5.338404E-03	3.216147E-03
6.766343E-02	1.270142E+00	5.075379E-03	3.222292E-03
7.019284E-02	1.259683E+00	4.894881E-03	3.227214E-03
7.281681E-02	1.240516E+00	4.666333E-03	3.233336E-03
7.553886E-02	1.234537E+00	4.499703E-03	3.239194E-03
7.836267E-02	1.209570E+00	4.279452E-03	3.246258E-03
8.129204E-02	1.197809E+00	4.114829E-03	3.252462E-03
8.433092E-02	1.193623E+00	3.971349E-03	3.259082E-03
8.748340E-02	1.177472E+00	3.805650E-03	3.269091E-03
9.075372E-02	1.169589E+00	3.640766E-03	3.280772E-03
9.414630E-02	1.155479E+00	3.485549E-03	3.293888E-03
9.766569E-02	1.147029E+00	3.350477E-03	3.303354E-03
1.013167E-01	1.132230E+00	3.213766E-03	3.312789E-03
1.051041E-01	1.125112E+00	3.088730E-03	3.325548E-03
1.090331E-01	1.117538E+00	2.970619E-03	3.337395E-03
1.131090E-01	1.111407E+00	2.859922E-03	3.349510E-03
1.173373E-01	1.106090E+00	2.749152E-03	3.364539E-03
1.217236E-01	1.098602E+00	2.644094E-03	3.381306E-03
1.262739E-01	1.099801E+00	2.551716E-03	3.406254E-03
1.309943E-01	1.096435E+00	2.469024E-03	3.431895E-03
1.358912E-01	1.099634E+00	2.389746E-03	3.465395E-03
1.409711E-01	1.098483E+00	2.323441E-03	3.498562E-03
1.462409E-01	1.100319E+00	2.260725E-03	3.542103E-03
1.517077E-01	1.104311E+00	2.210723E-03	3.592390E-03
1.573789E-01	1.095435E+00	2.149111E-03	3.653721E-03
1.632621E-01	1.100742E+00	2.115460E-03	3.717208E-03
1.693652E-01	1.100323E+00	2.080460E-03	3.793624E-03
1.756964E-01	1.099274E+00	2.052046E-03	3.885542E-03
1.822643E-01	1.094288E+00	2.028394E-03	3.989231E-03
1.890778E-01	1.092931E+00	2.012717E-03	4.099462E-03
1.961459E-01	1.083383E+00	1.995283E-03	4.226483E-03
2.034783E-01	1.077760E+00	1.987917E-03	4.369096E-03
2.110848E-01	1.067973E+00	1.976495E-03	4.526530E-03
2.189756E-01	1.053090E+00	1.968820E-03	4.691286E-03
2.271614E-01	1.038232E+00	1.965322E-03	4.866838E-03
2.356532E-01	1.021953E+00	1.974206E-03	5.043804E-03
2.444624E-01	1.003661E+00	1.980440E-03	5.226468E-03
2.536010E-01	9.788880E-01	1.998078E-03	5.413316E-03
2.630811E-01	9.644195E-01	2.037165E-03	5.601732E-03
2.729157E-01	9.504257E-01	2.094843E-03	5.798176E-03
2.831179E-01	9.343826E-01	2.158323E-03	6.001406E-03
2.937015E-01	9.157594E-01	2.243822E-03	6.211504E-03
3.046807E-01	9.029609E-01	2.376190E-03	6.419627E-03
3.160703E-01	8.959093E-01	2.554199E-03	6.637453E-03
3.278857E-01	8.791285E-01	2.778694E-03	6.857065E-03
3.401428E-01	8.703974E-01	3.056940E-03	7.093325E-03
3.528581E-01	8.714233E-01	3.487122E-03	7.327877E-03
3.660488E-01	8.583437E-01	4.091422E-03	7.561094E-03
3.797325E-01	8.623555E-01	4.919548E-03	7.816245E-03
3.939277E-01	8.534020E-01	6.046120E-03	8.089194E-03
4.086536E-01	8.422598E-01	7.860607E-03	8.374721E-03
4.239300E-01	8.240437E-01	1.143111E-02	8.647284E-03
4.397774E-01	8.373884E-01	2.010694E-02	8.937106E-03
4.562173E-01	7.152988E-01	5.546287E-02	9.158589E-03
