# I(Q)
#Q (1/A)        I (1/cm)        dI (1/cm)       dQ (1/A)
1.205691E-02	1.839010E+01	2.528020E+00	2.419573E-03
1.250762E-02	1.800105E+01	7.464538E-01	2.435229E-03
1.297518E-02	1.803294E+01	4.577867E-01	2.478649E-03
1.346022E-02	1.593065E+01	3.360042E-01	2.525527E-03
1.396339E-02	1.500072E+01	2.565488E-01	2.556883E-03
1.448537E-02	1.396295E+01	2.161134E-01	2.590615E-03
1.502686E-02	1.262047E+01	1.742331E-01	2.607911E-03
1.558860E-02	1.175254E+01	1.472200E-01	2.653117E-03
1.617133E-02	1.076770E+01	1.192892E-01	2.669881E-03
1.677585E-02	1.022968E+01	1.035879E-01	2.699393E-03
1.740297E-02	9.229142E+00	8.805011E-02	2.718474E-03
1.805353E-02	8.505588E+00	7.831036E-02	2.744093E-03
1.872841E-02	7.809827E+00	6.646121E-02	2.789397E-03
1.942851E-02	7.228407E+00	6.107720E-02	2.798572E-03
2.015479E-02	6.795998E+00	5.248368E-02	2.841713E-03
2.090822E-02	6.313095E+00	4.823979E-02	2.858891E-03
2.168981E-02	5.816028E+00	4.182533E-02	2.889232E-03
2.250062E-02	5.344563E+00	3.799290E-02	2.904607E-03
2.334174E-02	5.063970E+00	3.404772E-02	2.939561E-03
2.421431E-02	4.727779E+00	3.079921E-02	2.962715E-03
2.511949E-02	4.309729E+00	2.795768E-02	2.994592E-03
2.605851E-02	4.084309E+00	2.538750E-02	3.018877E-03
2.703263E-02	3.827612E+00	2.324547E-02	3.042688E-03
2.804317E-02	3.614760E+00	2.165551E-02	3.054911E-03
2.909148E-02	3.392435E+00	2.001747E-02	3.075732E-03
3.017898E-02	3.202179E+00	1.844233E-02	3.085530E-03
3.130713E-02	3.067227E+00	1.729328E-02	3.105930E-03
3.247746E-02	2.896934E+00	1.599245E-02	3.114206E-03
3.369153E-02	2.778730E+00	1.498530E-02	3.131116E-03
3.495099E-02	2.633906E+00	1.407614E-02	3.140518E-03
3.625753E-02	2.549042E+00	1.326508E-02	3.151005E-03
3.761292E-02	2.441297E+00	1.247592E-02	3.148646E-03
3.901897E-02	2.360574E+00	1.176015E-02	3.159714E-03
4.047758E-02	2.281518E+00	1.114748E-02	3.164464E-03
4.199071E-02	2.215315E+00	1.054371E-02	3.169373E-03
4.356041E-02	2.161707E+00	1.006663E-02	3.174419E-03
4.518879E-02	2.116560E+00	9.607197E-03	3.178563E-03
4.687805E-02	2.080926E+00	9.112499E-03	3.187387E-03
4.863044E-02	2.038427E+00	8.714551E-03	3.186079E-03
5.044835E-02	2.009803E+00	8.374257E-03	3.189542E-03
5.233422E-02	1.983077E+00	7.975277E-03	3.194815E-03
5.429058E-02	1.963516E+00	7.679991E-03	3.194387E-03
5.632008E-02	1.943055E+00	7.352262E-03	3.198021E-03
5.842544E-02	1.935137E+00	7.058908E-03	3.203607E-03
6.060950E-02	1.921482E+00	6.799598E-03	3.207070E-03
6.287521E-02	1.913179E+00	6.541364E-03	3.210557E-03
6.522562E-02	1.890581E+00	6.233001E-03	3.216124E-03
6.766389E-02	1.891269E+00	6.002038E-03	3.222331E-03
7.019331E-02	1.884476E+00	5.804681E-03	3.227201E-03
7.281728E-02	1.873098E+00	5.564268E-03	3.233284E-03
7.553934E-02	1.873879E+00	5.368607E-03	3.239166E-03
7.836316E-02	1.860889E+00	5.146453E-03	3.246318E-03
8.129254E-02	1.869425E+00	4.982723E-03	3.252444E-03
8.433143E-02	1.855222E+00	4.792444E-03	3.259032E-03
8.748391E-02	1.849202E+00	4.603685E-03	3.269137E-03
9.075424E-02	1.854995E+00	4.448132E-03	3.280855E-03
9.414683E-02	1.845695E+00	4.271851E-03	3.293723E-03
9.766623E-02	1.841680E+00	4.115775E-03	3.303384E-03
1.013172E-01	1.836313E+00	3.967900E-03	3.312849E-03
1.051046E-01	1.831748E+00	3.819973E-03	3.325515E-03
1.090337E-01	1.823558E+00	3.676987E-03	3.337518E-03
1.131096E-01	1.818345E+00	3.544583E-03	3.349443E-03
1.173379E-01	1.817885E+00	3.410962E-03	3.364454E-03
1.217242E-01	1.818244E+00	3.296016E-03	3.381416E-03
1.262745E-01	1.824833E+00	3.185426E-03	3.406145E-03
1.309949E-01	1.822509E+00	3.081730E-03	3.431860E-03
1.358918E-01	1.821822E+00	2.978968E-03	3.465416E-03
1.409717E-01	1.826564E+00	2.906360E-03	3.498619E-03
1.462415E-01	1.823592E+00	2.818587E-03	3.541996E-03
1.517083E-01	1.823777E+00	2.749081E-03	3.592390E-03
1.573795E-01	1.822720E+00	2.685622E-03	3.653699E-03
1.632627E-01	1.828290E+00	2.640473E-03	3.717215E-03
1.693658E-01	1.828212E+00	2.601905E-03	3.793674E-03
1.756970E-01	1.815959E+00	2.553595E-03	3.885499E-03
1.822649E-01	1.819486E+00	2.536042E-03	3.989272E-03
1.890784E-01	1.814779E+00	2.512818E-03	4.099380E-03
1.961465E-01	1.799995E+00	2.495311E-03	4.226533E-03
2.034789E-01	1.789367E+00	2.482561E-03	4.369083E-03
2.110854E-01	1.771827E+00	2.466076E-03	4.526584E-03
2.189762E-01	1.749015E+00	2.455159E-03	4.691299E-03
2.271620E-01	1.728661E+00	2.454716E-03	4.866832E-03
2.356537E-01	1.697096E+00	2.460144E-03	5.043793E-03
2.444630E-01	1.658359E+00	2.458681E-03	5.226509E-03
2.536015E-01	1.629554E+00	2.490926E-03	5.413317E-03
2.630817E-01	1.600637E+00	2.535156E-03	5.601780E-03
2.729162E-01	1.574464E+00	2.598568E-03	5.798133E-03
2.831184E-01	1.547436E+00	2.679718E-03	6.001406E-03
2.937019E-01	1.521611E+00	2.789179E-03	6.211492E-03
3.046811E-01	1.507388E+00	2.958584E-03	6.419659E-03
3.160708E-01	1.476958E+00	3.156872E-03	6.637453E-03
3.278861E-01	1.461536E+00	3.446305E-03	6.857066E-03
3.401432E-01	1.454861E+00	3.807269E-03	7.093326E-03
3.528585E-01	1.437307E+00	4.313309E-03	7.327877E-03
3.660491E-01	1.431977E+00	5.088375E-03	7.561095E-03
3.797327E-01	1.414484E+00	6.063970E-03	7.816245E-03
3.939279E-01	1.406150E+00	7.447404E-03	8.089195E-03
4.086538E-01	1.395163E+00	9.701738E-03	8.374722E-03
4.239301E-01	1.367780E+00	1.421347E-02	8.647285E-03
4.397775E-01	1.364369E+00	2.441320E-02	8.937107E-03
4.562173E-01	1.386752E+00	7.488733E-02	9.158590E-03
