# Q (1/nm)    I_data (cm^-1)    I_err (cm^-1)    I_GPR (cm^-1)    I_GPR_std (cm^-1)
1.7211878e-03 1.0659938e+01 6.9868850e-02 1.0586023e+01 2.4080745e-02
1.7776202e-03 9.8475430e+00 6.5093540e-02 1.0005680e+01 1.5658839e-02
1.8340526e-03 9.5811829e+00 5.9549008e-02 9.5023028e+00 1.5394384e-02
1.8904850e-03 9.0643941e+00 6.2216853e-02 9.0649192e+00 1.4026019e-02
1.9469173e-03 8.6768221e+00 5.5064396e-02 8.6760904e+00 1.3179695e-02
2.0033497e-03 8.3477606e+00 5.6001901e-02 8.3193020e+00 1.2973994e-02
2.0597821e-03 7.9711486e+00 5.0799838e-02 7.9826727e+00 1.2694328e-02
2.1162145e-03 7.6169234e+00 5.0395061e-02 7.6598962e+00 1.2261855e-02
2.1726469e-03 7.3512190e+00 4.8053878e-02 7.3494259e+00 1.1915869e-02
2.2290793e-03 7.0590898e+00 4.5008073e-02 7.0527906e+00 1.1722086e-02
2.2855116e-03 6.8234433e+00 4.4992396e-02 6.7728062e+00 1.1575277e-02
2.3419440e-03 6.4854041e+00 4.1529032e-02 6.5121373e+00 1.1400724e-02
2.3983764e-03 6.2780287e+00 4.0297820e-02 6.2724164e+00 1.1214959e-02
2.4548088e-03 6.0334074e+00 4.0183205e-02 6.0538964e+00 1.1058046e-02
2.5112412e-03 5.8541192e+00 3.7902161e-02 5.8554985e+00 1.0934528e-02
2.5676735e-03 5.6687313e+00 3.7529476e-02 5.6751141e+00 1.0818528e-02
2.6241059e-03 5.5234483e+00 3.5153551e-02 5.5100070e+00 1.0688510e-02
2.6805383e-03 5.3431832e+00 3.5045312e-02 5.3572244e+00 1.0545180e-02
2.7369707e-03 5.2837720e+00 3.3982050e-02 5.2139529e+00 1.0403367e-02
2.7934031e-03 5.0393639e+00 3.2932753e-02 5.0777749e+00 1.0275396e-02
2.8498354e-03 4.9261419e+00 3.2266611e-02 4.9468222e+00 1.0162712e-02
2.9062678e-03 4.7824618e+00 3.0168799e-02 4.8198214e+00 1.0059019e-02
2.9627002e-03 4.7457767e+00 3.0778075e-02 4.6960575e+00 9.9579245e-03
3.0191326e-03 4.5533269e+00 2.8941397e-02 4.5752709e+00 9.8576449e-03
3.0755650e-03 4.4832139e+00 2.9113102e-02 4.4575202e+00 9.7606427e-03
3.1319973e-03 4.3247923e+00 2.8675067e-02 4.3430451e+00 9.6705363e-03
3.1884297e-03 4.2485561e+00 2.6366234e-02 4.2321367e+00 9.5894361e-03
3.2448621e-03 4.1158968e+00 2.6804224e-02 4.1250430e+00 9.5172208e-03
3.3012945e-03 4.0155642e+00 2.5682462e-02 4.0219058e+00 9.4523473e-03
3.3577268e-03 3.9285568e+00 2.5649949e-02 3.9227346e+00 9.3929896e-03
3.4141592e-03 3.8488874e+00 2.4840549e-02 3.8274110e+00 9.3376666e-03
3.4705916e-03 3.7472415e+00 2.4234492e-02 3.7357091e+00 9.2852915e-03
3.5270240e-03 3.6462636e+00 2.3648663e-02 3.6473322e+00 9.2350467e-03
3.5834563e-03 3.5023160e+00 2.3111772e-02 3.5619542e+00 9.1864570e-03
3.6398887e-03 3.4814763e+00 2.2756299e-02 3.4792554e+00 9.1397091e-03
3.6963211e-03 3.4035690e+00 2.2284385e-02 3.3989537e+00 9.0959769e-03
3.7527535e-03 3.3091952e+00 2.1662521e-02 3.3208266e+00 9.0574469e-03
3.8091858e-03 3.2664144e+00 2.1973857e-02 3.2447183e+00 9.0268999e-03
3.8656182e-03 3.1765749e+00 2.0224995e-02 3.1705398e+00 9.0069422e-03
3.9220506e-03 3.1102430e+00 2.0919665e-02 3.0982614e+00 8.9991704e-03
3.9784829e-03 3.0210113e+00 1.9986794e-02 3.0278962e+00 9.0035897e-03
4.0349153e-03 2.9881613e+00 2.0410229e-02 2.9594846e+00 9.0184938e-03
4.0913477e-03 2.8931741e+00 1.9734044e-02 2.8930745e+00 9.0408254e-03
4.1477801e-03 2.8448161e+00 1.9665610e-02 2.8287070e+00 9.0668593e-03
4.2042124e-03 2.7128983e+00 1.9476437e-02 2.7664025e+00 9.0929692e-03
4.2606448e-03 2.7033583e+00 1.8952748e-02 2.7061528e+00 9.1162603e-03
4.3170772e-03 2.6459487e+00 1.9164969e-02 2.6479148e+00 9.1349355e-03
4.3735095e-03 2.5804087e+00 1.8645228e-02 2.5916133e+00 9.1483700e-03
4.4299419e-03 2.5365019e+00 1.8256176e-02 2.5371424e+00 9.1569443e-03
4.4863743e-03 2.4982306e+00 1.8825065e-02 2.4843727e+00 9.1617307e-03
4.5428066e-03 2.4647487e+00 1.7523812e-02 2.4331579e+00 9.1641332e-03
4.5992390e-03 2.3499469e+00 1.7620259e-02 2.3833455e+00 9.1655639e-03
4.6556714e-03 2.3405734e+00 1.7389393e-02 2.3347843e+00 9.1672085e-03
4.7121037e-03 2.2969489e+00 1.7154808e-02 2.2873316e+00 9.1699008e-03
4.7685361e-03 2.2324345e+00 1.7166843e-02 2.2408620e+00 9.1741011e-03
4.8249684e-03 2.1855942e+00 1.6376635e-02 2.1952704e+00 9.1799518e-03
4.8814008e-03 2.1665177e+00 1.6787204e-02 2.1504766e+00 9.1873790e-03
4.9378332e-03 2.1130515e+00 1.5850959e-02 2.1064254e+00 9.1962049e-03
4.9942655e-03 2.0494085e+00 1.6036349e-02 2.0630875e+00 9.2062461e-03
5.0506979e-03 2.0245020e+00 1.5920879e-02 2.0204558e+00 9.2173777e-03
5.1071302e-03 1.9793778e+00 1.5293900e-02 1.9785426e+00 9.2295569e-03
5.1635626e-03 1.9299246e+00 1.5552217e-02 1.9373762e+00 9.2428055e-03
5.2199950e-03 1.8967858e+00 1.4840478e-02 1.8969953e+00 9.2571608e-03
5.2764273e-03 1.8517134e+00 1.5081923e-02 1.8574449e+00 9.2726069e-03
5.3328597e-03 1.8358737e+00 1.4705725e-02 1.8187713e+00 9.2890048e-03
5.3892920e-03 1.7897328e+00 1.4530920e-02 1.7810184e+00 9.3060355e-03
5.4457244e-03 1.7316469e+00 1.4525475e-02 1.7442242e+00 9.3231708e-03
5.5021567e-03 1.6963523e+00 1.4127329e-02 1.7084181e+00 9.3396791e-03
5.5585891e-03 1.6796032e+00 1.4065693e-02 1.6736187e+00 9.3546682e-03
5.6150215e-03 1.6355245e+00 1.3603186e-02 1.6398341e+00 9.3671599e-03
5.6714538e-03 1.6296841e+00 1.3579277e-02 1.6070596e+00 9.3761864e-03
5.7278862e-03 1.5790677e+00 1.3511526e-02 1.5752794e+00 9.3808941e-03
5.7843185e-03 1.5424332e+00 1.3010427e-02 1.5444671e+00 9.3806389e-03
5.8407509e-03 1.5056593e+00 1.3326651e-02 1.5145869e+00 9.3750626e-03
5.8971832e-03 1.4907749e+00 1.2772228e-02 1.4855949e+00 9.3641373e-03
5.9536156e-03 1.4447418e+00 1.2879824e-02 1.4574415e+00 9.3481737e-03
6.0100479e-03 1.4222755e+00 1.2326829e-02 1.4300726e+00 9.3277944e-03
6.0664803e-03 1.3769303e+00 1.2191793e-02 1.4034321e+00 9.3038739e-03
6.1229126e-03 1.3722348e+00 1.1929049e-02 1.3774631e+00 9.2774565e-03
6.1793449e-03 1.3662522e+00 1.1773086e-02 1.3521099e+00 9.2496614e-03
6.2357773e-03 1.3262072e+00 1.1426998e-02 1.3273184e+00 9.2215888e-03
6.2922096e-03 1.2958698e+00 1.1153993e-02 1.3030393e+00 9.1942374e-03
6.3486420e-03 1.3024470e+00 1.1120486e-02 1.2792271e+00 9.1684438e-03
6.4050743e-03 1.2795140e+00 1.1077441e-02 1.2558417e+00 9.1448489e-03
6.4615067e-03 1.2332970e+00 1.0625963e-02 1.2328490e+00 9.1238943e-03
6.5179390e-03 1.1993884e+00 1.0614375e-02 1.2102203e+00 9.1058439e-03
6.5743714e-03 1.2053674e+00 1.0369562e-02 1.1879331e+00 9.0908259e-03
6.6308037e-03 1.1631732e+00 1.0048365e-02 1.1659704e+00 9.0788866e-03
6.6872360e-03 1.1468689e+00 1.0067197e-02 1.1443207e+00 9.0700440e-03
6.7436684e-03 1.1006678e+00 9.8516187e-03 1.1229770e+00 9.0643349e-03
6.8001007e-03 1.0930897e+00 9.8554956e-03 1.1019364e+00 9.0618465e-03
6.8565330e-03 1.0839406e+00 9.5108582e-03 1.0811998e+00 9.0627292e-03
6.9129654e-03 1.0604919e+00 9.3910918e-03 1.0607707e+00 9.0671888e-03
6.9693977e-03 1.0478292e+00 9.3013960e-03 1.0406547e+00 9.0754608e-03
7.0258300e-03 1.0069285e+00 9.1253941e-03 1.0208589e+00 9.0877705e-03
7.0822624e-03 1.0038737e+00 9.1355263e-03 1.0013909e+00 9.1042868e-03
7.1386947e-03 9.8078385e-01 8.8611064e-03 9.8225928e-01 9.1250743e-03
7.1951270e-03 9.7098582e-01 8.8651888e-03 9.6347168e-01 9.1500540e-03
7.2515594e-03 9.5527362e-01 8.6512220e-03 9.4503538e-01 9.1789747e-03
7.3079917e-03 9.2162078e-01 8.5030772e-03 9.2695645e-01 9.2114023e-03
7.3644240e-03 8.9428129e-01 8.2775486e-03 9.0923971e-01 9.2467265e-03
7.4208564e-03 8.8200808e-01 8.2875493e-03 8.9188888e-01 9.2841847e-03
7.4772887e-03 8.8726784e-01 8.4285609e-03 8.7490616e-01 9.3229010e-03
7.5337210e-03 8.6935323e-01 8.4290142e-03 8.5829125e-01 9.3619353e-03
7.5901533e-03 8.3951543e-01 8.3655610e-03 8.4204281e-01 9.4003381e-03
7.6465857e-03 8.1765072e-01 8.2286130e-03 8.2615794e-01 9.4372048e-03
7.7030180e-03 8.1306063e-01 8.0410929e-03 8.1063208e-01 9.4717266e-03
7.7594503e-03 8.0383324e-01 8.2042185e-03 7.9545955e-01 9.5032326e-03
7.8158826e-03 7.9817288e-01 7.9663237e-03 7.8063348e-01 9.5312219e-03
7.8723149e-03 7.7375512e-01 8.1460350e-03 7.6614576e-01 9.5553823e-03
7.9287473e-03 7.5203979e-01 7.7130717e-03 7.5198774e-01 9.5755977e-03
7.9851796e-03 7.2476657e-01 7.5910089e-03 7.3815026e-01 9.5919422e-03
8.0416119e-03 7.0133994e-01 7.3233211e-03 7.2462334e-01 9.6046648e-03
8.0980442e-03 7.0218294e-01 7.3554824e-03 7.1139681e-01 9.6141644e-03
8.1544765e-03 6.9857407e-01 7.2165631e-03 6.9846047e-01 9.6209585e-03
8.2109089e-03 6.8206990e-01 7.0892701e-03 6.8580392e-01 9.6256487e-03
8.2673412e-03 6.9178958e-01 7.0521145e-03 6.7341697e-01 9.6288835e-03
8.3237735e-03 6.7045804e-01 7.0252563e-03 6.6128975e-01 9.6313233e-03
8.3802058e-03 6.5295300e-01 6.7452608e-03 6.4941245e-01 9.6336077e-03
8.4366381e-03 6.2061513e-01 6.6781807e-03 6.3777589e-01 9.6363278e-03
8.4930704e-03 6.3038476e-01 6.4894735e-03 6.2637130e-01 9.6400044e-03
8.5495027e-03 6.1688227e-01 6.6623133e-03 6.1519020e-01 9.6450731e-03
8.6059350e-03 6.0389187e-01 6.3578179e-03 6.0422490e-01 9.6518765e-03
8.6623673e-03 6.0545604e-01 6.3249927e-03 5.9346797e-01 9.6606618e-03
8.7187996e-03 5.8165668e-01 6.2820218e-03 5.8291282e-01 9.6715859e-03
8.7752319e-03 5.7118869e-01 6.0388098e-03 5.7255300e-01 9.6847236e-03
8.8316642e-03 5.6339117e-01 6.0694339e-03 5.6238305e-01 9.7000802e-03
8.8880965e-03 5.5160139e-01 5.9578439e-03 5.5239726e-01 9.7176052e-03
8.9445288e-03 5.3993279e-01 5.9535237e-03 5.4259132e-01 9.7372075e-03
9.0009611e-03 5.1398748e-01 5.8649093e-03 5.3296034e-01 9.7587694e-03
9.0573934e-03 5.2483242e-01 5.7984529e-03 5.2350055e-01 9.7821597e-03
9.1138257e-03 5.1569382e-01 5.7429776e-03 5.1420800e-01 9.8072441e-03
9.1702580e-03 5.0950839e-01 5.5290915e-03 5.0507944e-01 9.8338940e-03
9.2266903e-03 5.0150176e-01 5.6693857e-03 4.9611181e-01 9.8619916e-03
9.2831226e-03 4.9120308e-01 5.3853511e-03 4.8730217e-01 9.8914333e-03
9.3395549e-03 4.6871647e-01 5.4277084e-03 4.7864772e-01 9.9221309e-03
9.3959872e-03 4.6987888e-01 5.4536169e-03 4.7014586e-01 9.9540101e-03
9.4524195e-03 4.6255709e-01 5.2017449e-03 4.6179402e-01 9.9870091e-03
9.5088518e-03 4.4988538e-01 5.2814550e-03 4.5358997e-01 1.0021075e-02
9.5652841e-03 4.5180172e-01 5.2027542e-03 4.4553155e-01 1.0056162e-02
9.6217164e-03 4.3945692e-01 5.1015261e-03 4.3761625e-01 1.0092226e-02
9.6781486e-03 4.3629569e-01 5.1269057e-03 4.2984209e-01 1.0129222e-02
9.7345809e-03 4.1925461e-01 5.0054625e-03 4.2220667e-01 1.0167105e-02
9.7910132e-03 4.1156164e-01 5.0839647e-03 4.1470805e-01 1.0205826e-02
9.8474455e-03 4.0627598e-01 4.8483905e-03 4.0734401e-01 1.0245333e-02
9.9038778e-03 4.0847166e-01 4.9307500e-03 4.0011257e-01 1.0285569e-02
9.9603101e-03 3.9015764e-01 4.8491693e-03 3.9301132e-01 1.0326476e-02
1.0016742e-02 3.8632547e-01 4.7765371e-03 3.8603834e-01 1.0367997e-02
1.0073175e-02 3.7767670e-01 4.8149190e-03 3.7919150e-01 1.0410075e-02
1.0129607e-02 3.7008754e-01 4.5990172e-03 3.7246848e-01 1.0452657e-02
1.0186039e-02 3.6124278e-01 4.5667424e-03 3.6586737e-01 1.0495696e-02
1.0242471e-02 3.5816673e-01 4.5699857e-03 3.5938593e-01 1.0539154e-02
1.0298904e-02 3.5954316e-01 4.4411405e-03 3.5302228e-01 1.0583002e-02
1.0355336e-02 3.4382733e-01 4.4638254e-03 3.4677399e-01 1.0627220e-02
1.0411768e-02 3.4628517e-01 4.4167753e-03 3.4063928e-01 1.0671803e-02
1.0468201e-02 3.3506943e-01 4.3557273e-03 3.3461598e-01 1.0716754e-02
1.0524633e-02 3.2123145e-01 4.2742399e-03 3.2870211e-01 1.0762088e-02
1.0581065e-02 3.1721079e-01 4.2650280e-03 3.2289567e-01 1.0807830e-02
1.0637497e-02 3.1734404e-01 4.2634319e-03 3.1719486e-01 1.0854014e-02
1.0693930e-02 3.1838749e-01 4.2744563e-03 3.1159765e-01 1.0900681e-02
1.0750362e-02 3.0056150e-01 4.2105760e-03 3.0610218e-01 1.0947876e-02
1.0806794e-02 2.9893078e-01 4.0928971e-03 3.0070661e-01 1.0995648e-02
1.0863226e-02 2.9713780e-01 3.9986010e-03 2.9540915e-01 1.1044048e-02
1.0919659e-02 2.9135840e-01 3.9805874e-03 2.9020811e-01 1.1093126e-02
1.0976091e-02 2.8822064e-01 3.9470262e-03 2.8510179e-01 1.1142930e-02
1.1032523e-02 2.8213639e-01 3.9329543e-03 2.8008844e-01 1.1193503e-02
1.1088955e-02 2.7948882e-01 3.9081273e-03 2.7516664e-01 1.1244887e-02
1.1145388e-02 2.6851084e-01 3.7738950e-03 2.7033457e-01 1.1297117e-02
1.1201820e-02 2.6049708e-01 3.7861759e-03 2.6559075e-01 1.1350221e-02
1.1258252e-02 2.6477617e-01 3.7825093e-03 2.6093372e-01 1.1404223e-02
1.1314684e-02 2.5528559e-01 3.7067149e-03 2.5636194e-01 1.1459141e-02
1.1371117e-02 2.4923928e-01 3.6978427e-03 2.5187397e-01 1.1514990e-02
1.1427549e-02 2.4473371e-01 3.6403166e-03 2.4746837e-01 1.1571777e-02
1.1483981e-02 2.4608041e-01 3.6167301e-03 2.4314375e-01 1.1629508e-02
1.1540413e-02 2.3968970e-01 3.6250046e-03 2.3889857e-01 1.1688186e-02
1.1596846e-02 2.3347363e-01 3.5364964e-03 2.3473154e-01 1.1747812e-02
1.1653278e-02 2.2703058e-01 3.4692393e-03 2.3064130e-01 1.1808384e-02
1.1709710e-02 2.2714685e-01 3.5411842e-03 2.2662646e-01 1.1869902e-02
1.1766142e-02 2.2560055e-01 3.4502859e-03 2.2268570e-01 1.1932366e-02
1.1822575e-02 2.2491489e-01 3.4826628e-03 2.1881768e-01 1.1995779e-02
1.1879007e-02 2.1155823e-01 3.3369479e-03 2.1502100e-01 1.2060139e-02
1.1935439e-02 2.1211484e-01 3.2943191e-03 2.1129434e-01 1.2125454e-02
1.1991871e-02 2.1049434e-01 3.2785566e-03 2.0763641e-01 1.2191727e-02
1.2048303e-02 1.9957816e-01 3.2920917e-03 2.0404597e-01 1.2258968e-02
1.2104736e-02 1.9995741e-01 3.2514321e-03 2.0052161e-01 1.2327185e-02
1.2161168e-02 1.9424270e-01 3.1743812e-03 1.9706196e-01 1.2396388e-02
1.2217600e-02 1.9129463e-01 3.1841894e-03 1.9366580e-01 1.2466590e-02
1.2274032e-02 1.8785908e-01 3.1464744e-03 1.9033192e-01 1.2537801e-02
1.2330465e-02 1.8898245e-01 3.1366885e-03 1.8705891e-01 1.2610037e-02
1.2386897e-02 1.8413580e-01 3.1577031e-03 1.8384548e-01 1.2683304e-02
1.2443329e-02 1.8300153e-01 3.0134366e-03 1.8069038e-01 1.2757617e-02
1.2499761e-02 1.8113426e-01 3.0760506e-03 1.7759230e-01 1.2832984e-02
1.2556193e-02 1.8061443e-01 3.0245762e-03 1.7455009e-01 1.2909412e-02
1.2612626e-02 1.7476968e-01 3.0032615e-03 1.7156242e-01 1.2986910e-02
1.2669058e-02 1.6811785e-01 3.0463907e-03 1.6862809e-01 1.3065477e-02
1.2725490e-02 1.6166556e-01 2.9022264e-03 1.6574596e-01 1.3145116e-02
1.2781922e-02 1.6088434e-01 2.9654444e-03 1.6291466e-01 1.3225826e-02
1.2838355e-02 1.5736015e-01 2.8731391e-03 1.6013317e-01 1.3307604e-02
1.2894787e-02 1.5762215e-01 2.9048927e-03 1.5740031e-01 1.3390443e-02
1.2951219e-02 1.5147604e-01 2.7808010e-03 1.5471485e-01 1.3474335e-02
1.3007651e-02 1.5119296e-01 2.7969745e-03 1.5207587e-01 1.3559273e-02
1.3064083e-02 1.4941909e-01 2.8365041e-03 1.4948218e-01 1.3645245e-02
1.3120516e-02 1.5111660e-01 2.7467844e-03 1.4693280e-01 1.3732244e-02
1.3176948e-02 1.4544624e-01 2.7640547e-03 1.4442662e-01 1.3820254e-02
1.3233380e-02 1.4020952e-01 2.7537372e-03 1.4196274e-01 1.3909269e-02
1.3289812e-02 1.4052888e-01 2.6747107e-03 1.3954008e-01 1.3999280e-02
1.3346244e-02 1.3684981e-01 2.6686782e-03 1.3715790e-01 1.4090280e-02
1.3402676e-02 1.3493105e-01 2.6626848e-03 1.3481509e-01 1.4182265e-02
1.3459109e-02 1.3397099e-01 2.6641479e-03 1.3251095e-01 1.4275238e-02
1.3515541e-02 1.2807974e-01 2.5540925e-03 1.3024468e-01 1.4369198e-02
1.3571973e-02 1.2363875e-01 2.6070771e-03 1.2801542e-01 1.4464155e-02
1.3628405e-02 1.2701729e-01 2.5377754e-03 1.2582236e-01 1.4560123e-02
1.3684837e-02 1.2323943e-01 2.5083597e-03 1.2366490e-01 1.4657120e-02
1.3741270e-02 1.2069054e-01 2.5163729e-03 1.2154232e-01 1.4755175e-02
1.3797702e-02 1.2027462e-01 2.5035707e-03 1.1945395e-01 1.4854313e-02
1.3854134e-02 1.1742384e-01 2.5076849e-03 1.1739909e-01 1.4954577e-02
1.3910566e-02 1.1453299e-01 2.4466831e-03 1.1537728e-01 1.5056009e-02
1.3966998e-02 1.1543847e-01 2.4256549e-03 1.1338791e-01 1.5158662e-02
1.4023430e-02 1.1017343e-01 2.4666833e-03 1.1143047e-01 1.5262593e-02
1.4079863e-02 1.0966693e-01 2.4176605e-03 1.0950443e-01 1.5367870e-02
1.4136295e-02 1.0754370e-01 2.3766045e-03 1.0760930e-01 1.5474559e-02
1.4192727e-02 1.0348424e-01 2.3659406e-03 1.0574468e-01 1.5582737e-02
1.4249159e-02 1.0353531e-01 2.3336064e-03 1.0391005e-01 1.5692488e-02
1.4305591e-02 1.0054826e-01 2.4015767e-03 1.0210495e-01 1.5803895e-02
1.4362023e-02 1.0071412e-01 2.2248770e-03 1.0032917e-01 1.5917049e-02
1.4418456e-02 9.6599150e-02 2.3486556e-03 9.8582332e-02 1.6032043e-02
1.4474888e-02 1.0087523e-01 2.2426791e-03 9.6864089e-02 1.6148967e-02
1.4531320e-02 9.1563856e-02 2.2347689e-03 9.5174056e-02 1.6267916e-02
1.4587752e-02 9.8731376e-02 2.1792789e-03 9.3511893e-02 1.6388984e-02
1.4644184e-02 9.0469021e-02 2.2176271e-03 9.1877356e-02 1.6512263e-02
1.4700616e-02 9.2021255e-02 2.2003494e-03 9.0270172e-02 1.6637842e-02
1.4757049e-02 8.5234552e-02 2.1355603e-03 8.8690014e-02 1.6765807e-02
1.4813481e-02 8.3866937e-02 2.1944479e-03 8.7136677e-02 1.6896234e-02
1.4869913e-02 8.5493533e-02 2.1857368e-03 8.5609800e-02 1.7029197e-02
1.4926345e-02 8.5431614e-02 2.1480232e-03 8.4109296e-02 1.7164762e-02
1.4982777e-02 8.6124237e-02 2.1119882e-03 8.2634758e-02 1.7302985e-02
1.5039209e-02 8.4119463e-02 2.1128842e-03 8.1186007e-02 1.7443913e-02
1.5095641e-02 7.8998636e-02 2.1179551e-03 7.9762771e-02 1.7587582e-02
1.5152074e-02 7.8797770e-02 2.0648202e-03 7.8364762e-02 1.7734021e-02
1.5208506e-02 8.2483383e-02 2.0387418e-03 7.6991832e-02 1.7883237e-02
1.5264938e-02 7.6220401e-02 2.0781247e-03 7.5643725e-02 1.8035234e-02
1.5321370e-02 7.6856145e-02 2.0233270e-03 7.4320159e-02 1.8190002e-02
1.5377802e-02 7.0688136e-02 2.0560721e-03 7.3020886e-02 1.8347517e-02
1.5434234e-02 7.0746799e-02 1.9106354e-03 7.1745548e-02 1.8507743e-02
1.5490666e-02 6.9160633e-02 2.0034252e-03 7.0494073e-02 1.8670632e-02
1.5547098e-02 7.0227984e-02 2.0035715e-03 6.9266062e-02 1.8836124e-02
1.5603531e-02 6.5041213e-02 1.9337799e-03 6.8061296e-02 1.9004152e-02
1.5659963e-02 6.5769021e-02 1.9624479e-03 6.6879545e-02 1.9174628e-02
1.5716395e-02 6.6415365e-02 1.8675774e-03 6.5720462e-02 1.9347465e-02
1.5772827e-02 6.1004729e-02 1.9197993e-03 6.4583788e-02 1.9522565e-02
1.5829259e-02 6.3010324e-02 1.8858738e-03 6.3469219e-02 1.9699820e-02
1.5885691e-02 6.0449240e-02 1.9485372e-03 6.2376438e-02 1.9879118e-02
1.5942123e-02 6.3960128e-02 1.8460732e-03 6.1305203e-02 2.0060342e-02
1.5998555e-02 5.7342577e-02 1.8592088e-03 6.0255157e-02 2.0243371e-02
1.6054987e-02 6.0145117e-02 1.9203676e-03 5.9226020e-02 2.0428083e-02
1.6111420e-02 5.7432297e-02 1.8902536e-03 5.8217378e-02 2.0614356e-02
1.6167852e-02 5.6427013e-02 1.8565607e-03 5.7229003e-02 2.0802061e-02
1.6224284e-02 5.5611628e-02 1.8756311e-03 5.6260572e-02 2.0991081e-02
1.6280716e-02 5.7948707e-02 1.7946889e-03 5.5311713e-02 2.1181298e-02
1.6337148e-02 5.5920295e-02 1.8522122e-03 5.4382152e-02 2.1372598e-02
1.6393580e-02 5.4660402e-02 1.8377033e-03 5.3471450e-02 2.1564875e-02
1.6450012e-02 5.2538955e-02 1.8105651e-03 5.2579313e-02 2.1758028e-02
1.6506444e-02 5.0121530e-02 1.7913437e-03 5.1705424e-02 2.1951964e-02
1.6562876e-02 5.0558084e-02 1.7909739e-03 5.0849351e-02 2.2146599e-02
1.6619308e-02 4.9878529e-02 1.7617057e-03 5.0010782e-02 2.2341859e-02
1.6675740e-02 4.7280787e-02 1.7690429e-03 4.9189348e-02 2.2537680e-02
1.6732173e-02 5.1122990e-02 1.7291964e-03 4.8384750e-02 2.2734012e-02
1.6788605e-02 4.5612934e-02 1.6830956e-03 4.7596626e-02 2.2930806e-02
1.6845037e-02 4.4642164e-02 1.7665381e-03 4.6824593e-02 2.3128033e-02
1.6901469e-02 4.5845795e-02 1.7068736e-03 4.6068353e-02 2.3325675e-02
1.6957901e-02 4.4509513e-02 1.6933693e-03 4.5327480e-02 2.3523723e-02
1.7014333e-02 4.4855221e-02 1.7312798e-03 4.4601611e-02 2.3722181e-02
1.7070765e-02 4.4425698e-02 1.6983046e-03 4.3890526e-02 2.3921062e-02
1.7127197e-02 4.5086431e-02 1.7461836e-03 4.3193874e-02 2.4120392e-02
1.7183629e-02 4.0878525e-02 1.7067535e-03 4.2511183e-02 2.4320206e-02
1.7240061e-02 4.0723311e-02 1.6875135e-03 4.1842271e-02 2.4520549e-02
1.7296493e-02 4.0638292e-02 1.6875325e-03 4.1186727e-02 2.4721474e-02
1.7352925e-02 3.9902390e-02 1.6455570e-03 4.0544249e-02 2.4923044e-02
1.7409357e-02 3.9700652e-02 1.6316848e-03 3.9914476e-02 2.5125328e-02
1.7465789e-02 4.0160413e-02 1.6304328e-03 3.9297147e-02 2.5328402e-02
1.7522221e-02 3.8394401e-02 1.6721183e-03 3.8691953e-02 2.5532348e-02
1.7578654e-02 3.6600513e-02 1.6527575e-03 3.8098595e-02 2.5737257e-02
1.7635086e-02 3.5684189e-02 1.6367074e-03 3.7516715e-02 2.5943211e-02
1.7691518e-02 3.9172243e-02 1.6196568e-03 3.6946113e-02 2.6150306e-02
