# Q (1/nm)    I_data (cm^-1)    I_err (cm^-1)    I_GPR (cm^-1)    I_GPR_std (cm^-1)
1.7211878e-03 8.2052423e+00 6.2838944e-02 8.2161696e+00 2.7585508e-02
1.7776202e-03 8.0325074e+00 5.9382661e-02 8.0372064e+00 1.7219452e-02
1.8340526e-03 7.8671755e+00 5.4168522e-02 7.8061625e+00 1.6682523e-02
1.8904850e-03 7.5038085e+00 5.6765685e-02 7.5596715e+00 1.5321097e-02
1.9469173e-03 7.3086220e+00 5.0420821e-02 7.3220802e+00 1.4155926e-02
2.0033497e-03 7.1004178e+00 5.1439203e-02 7.1054574e+00 1.3688822e-02
2.0597821e-03 6.8843379e+00 4.6806200e-02 6.9123885e+00 1.3314817e-02
2.1162145e-03 6.8417017e+00 4.6949464e-02 6.7396154e+00 1.2789065e-02
2.1726469e-03 6.5767969e+00 4.4688253e-02 6.5813470e+00 1.2279966e-02
2.2290793e-03 6.3533342e+00 4.1910474e-02 6.4317279e+00 1.1913738e-02
2.2855116e-03 6.2717139e+00 4.2147794e-02 6.2863270e+00 1.1640419e-02
2.3419440e-03 6.1679922e+00 3.9360244e-02 6.1427183e+00 1.1374896e-02
2.3983764e-03 6.0356553e+00 3.8301927e-02 6.0003691e+00 1.1103134e-02
2.4548088e-03 5.9069123e+00 3.8456139e-02 5.8601109e+00 1.0858560e-02
2.5112412e-03 5.6699418e+00 3.6133856e-02 5.7234531e+00 1.0659836e-02
2.5676735e-03 5.5599578e+00 3.5909213e-02 5.5919615e+00 1.0490752e-02
2.6241059e-03 5.4673714e+00 3.3741845e-02 5.4668153e+00 1.0323554e-02
2.6805383e-03 5.3479006e+00 3.3769057e-02 5.3485835e+00 1.0145444e-02
2.7369707e-03 5.2634314e+00 3.2673375e-02 5.2371900e+00 9.9633155e-03
2.7934031e-03 5.1200386e+00 3.1916720e-02 5.1320164e+00 9.7914366e-03
2.8498354e-03 5.0473301e+00 3.1355485e-02 5.0320801e+00 9.6381531e-03
2.9062678e-03 4.9638883e+00 2.9463495e-02 4.9362361e+00 9.5017469e-03
2.9627002e-03 4.8182185e+00 2.9795197e-02 4.8433562e+00 9.3748902e-03
3.0191326e-03 4.7555112e+00 2.8324352e-02 4.7524675e+00 9.2512727e-03
3.0755650e-03 4.6279721e+00 2.8367037e-02 4.6628364e+00 9.1291628e-03
3.1319973e-03 4.5450879e+00 2.8136015e-02 4.5740020e+00 9.0108944e-03
3.1884297e-03 4.5188134e+00 2.5994847e-02 4.4857613e+00 8.9002170e-03
3.2448621e-03 4.3996391e+00 2.6480506e-02 4.3981270e+00 8.7998432e-03
3.3012945e-03 4.3161169e+00 2.5429815e-02 4.3112679e+00 8.7103899e-03
3.3577268e-03 4.2482989e+00 2.5462216e-02 4.2254404e+00 8.6306384e-03
3.4141592e-03 4.1431518e+00 2.4612220e-02 4.1409350e+00 8.5584074e-03
3.4705916e-03 4.0676985e+00 2.4095446e-02 4.0580248e+00 8.4914096e-03
3.5270240e-03 3.9570825e+00 2.3509332e-02 3.9769386e+00 8.4278260e-03
3.5834563e-03 3.8772501e+00 2.3169092e-02 3.8978411e+00 8.3666278e-03
3.6398887e-03 3.8425577e+00 2.2783531e-02 3.8208283e+00 8.3077365e-03
3.6963211e-03 3.7406782e+00 2.2272539e-02 3.7459313e+00 8.2520479e-03
3.7527535e-03 3.6330957e+00 2.1644554e-02 3.6731293e+00 8.2012699e-03
3.8091858e-03 3.6082093e+00 2.2014435e-02 3.6023597e+00 8.1575400e-03
3.8656182e-03 3.5372551e+00 2.0330442e-02 3.5335308e+00 8.1228705e-03
3.9220506e-03 3.4619168e+00 2.1031174e-02 3.4665369e+00 8.0985660e-03
3.9784829e-03 3.4292073e+00 2.0260301e-02 3.4012651e+00 8.0847916e-03
4.0349153e-03 3.3578771e+00 2.0604629e-02 3.3376045e+00 8.0804376e-03
4.0913477e-03 3.2780611e+00 1.9993673e-02 3.2754489e+00 8.0833141e-03
4.1477801e-03 3.2102404e+00 1.9889242e-02 3.2146994e+00 8.0906002e-03
4.2042124e-03 3.1665096e+00 1.9983663e-02 3.1552675e+00 8.0993986e-03
4.2606448e-03 3.0945734e+00 1.9284445e-02 3.0970721e+00 8.1072366e-03
4.3170772e-03 3.0206412e+00 1.9480325e-02 3.0400387e+00 8.1124013e-03
4.3735095e-03 2.9621703e+00 1.8997825e-02 2.9841002e+00 8.1140646e-03
4.4299419e-03 2.9127243e+00 1.8615458e-02 2.9291955e+00 8.1122159e-03
4.4863743e-03 2.8777401e+00 1.9212038e-02 2.8752685e+00 8.1074622e-03
4.5428066e-03 2.8502243e+00 1.7927793e-02 2.8222680e+00 8.1007684e-03
4.5992390e-03 2.7646822e+00 1.8153823e-02 2.7701481e+00 8.0932062e-03
4.6556714e-03 2.7255518e+00 1.7831267e-02 2.7188683e+00 8.0857576e-03
4.7121037e-03 2.6632168e+00 1.7565376e-02 2.6683936e+00 8.0791959e-03
4.7685361e-03 2.6189155e+00 1.7682050e-02 2.6186955e+00 8.0740434e-03
4.8249684e-03 2.5621638e+00 1.6857601e-02 2.5697511e+00 8.0705890e-03
4.8814008e-03 2.5130388e+00 1.7200312e-02 2.5215434e+00 8.0689424e-03
4.9378332e-03 2.4914443e+00 1.6367871e-02 2.4740618e+00 8.0690989e-03
4.9942655e-03 2.4084983e+00 1.6523103e-02 2.4273004e+00 8.0709962e-03
5.0506979e-03 2.3845843e+00 1.6431702e-02 2.3812570e+00 8.0745522e-03
5.1071302e-03 2.3520073e+00 1.5852782e-02 2.3359338e+00 8.0796780e-03
5.1635626e-03 2.3178980e+00 1.6188960e-02 2.2913350e+00 8.0862705e-03
5.2199950e-03 2.2530200e+00 1.5367849e-02 2.2474655e+00 8.0941901e-03
5.2764273e-03 2.1866551e+00 1.5577992e-02 2.2043308e+00 8.1032321e-03
5.3328597e-03 2.1667682e+00 1.5189498e-02 2.1619354e+00 8.1131018e-03
5.3892920e-03 2.1297472e+00 1.5063734e-02 2.1202826e+00 8.1233990e-03
5.4457244e-03 2.0382817e+00 1.4980898e-02 2.0793732e+00 8.1336196e-03
5.5021567e-03 2.0347593e+00 1.4696882e-02 2.0392068e+00 8.1431732e-03
5.5585891e-03 1.9894172e+00 1.4546243e-02 1.9997796e+00 8.1514195e-03
5.6150215e-03 1.9523038e+00 1.4126514e-02 1.9610855e+00 8.1577161e-03
5.6714538e-03 1.9199903e+00 1.4015412e-02 1.9231164e+00 8.1614743e-03
5.7278862e-03 1.9000100e+00 1.4085437e-02 1.8858618e+00 8.1622141e-03
5.7843185e-03 1.8565832e+00 1.3557234e-02 1.8493104e+00 8.1596122e-03
5.8407509e-03 1.8452724e+00 1.4000668e-02 1.8134485e+00 8.1535355e-03
5.8971832e-03 1.7771911e+00 1.3253005e-02 1.7782627e+00 8.1440574e-03
5.9536156e-03 1.7530693e+00 1.3461642e-02 1.7437394e+00 8.1314524e-03
6.0100479e-03 1.7008415e+00 1.2805005e-02 1.7098645e+00 8.1161728e-03
6.0664803e-03 1.6579888e+00 1.2692377e-02 1.6766249e+00 8.0988074e-03
6.1229126e-03 1.6449528e+00 1.2408931e-02 1.6440083e+00 8.0800303e-03
6.1793449e-03 1.6077949e+00 1.2142267e-02 1.6120032e+00 8.0605451e-03
6.2357773e-03 1.5954983e+00 1.1903059e-02 1.5805994e+00 8.0410309e-03
6.2922096e-03 1.5315350e+00 1.1520631e-02 1.5497878e+00 8.0220993e-03
6.3486420e-03 1.5099969e+00 1.1389736e-02 1.5195600e+00 8.0042633e-03
6.4050743e-03 1.5036104e+00 1.1415507e-02 1.4899088e+00 7.9879253e-03
6.4615067e-03 1.4536485e+00 1.0966224e-02 1.4608284e+00 7.9733801e-03
6.5179390e-03 1.4325085e+00 1.1020661e-02 1.4323129e+00 7.9608336e-03
6.5743714e-03 1.4257537e+00 1.0724366e-02 1.4043565e+00 7.9504306e-03
6.6308037e-03 1.3820091e+00 1.0412082e-02 1.3769537e+00 7.9422881e-03
6.6872360e-03 1.3489312e+00 1.0380481e-02 1.3500996e+00 7.9365252e-03
6.7436684e-03 1.3083818e+00 1.0197266e-02 1.3237886e+00 7.9332871e-03
6.8001007e-03 1.3045648e+00 1.0220237e-02 1.2980147e+00 7.9327574e-03
6.8565330e-03 1.2746374e+00 9.8056503e-03 1.2727710e+00 7.9351567e-03
6.9129654e-03 1.2479352e+00 9.6903837e-03 1.2480501e+00 7.9407290e-03
6.9693977e-03 1.2225851e+00 9.5543567e-03 1.2238439e+00 7.9497154e-03
7.0258300e-03 1.2021025e+00 9.4641687e-03 1.2001438e+00 7.9623208e-03
7.0822624e-03 1.1611486e+00 9.3448866e-03 1.1769400e+00 7.9786781e-03
7.1386947e-03 1.1478342e+00 9.1136130e-03 1.1542218e+00 7.9988137e-03
7.1951270e-03 1.1321955e+00 9.1016742e-03 1.1319785e+00 8.0226205e-03
7.2515594e-03 1.1105074e+00 8.8691779e-03 1.1101978e+00 8.0498422e-03
7.3079917e-03 1.1059129e+00 8.8429416e-03 1.0888680e+00 8.0800698e-03
7.3644240e-03 1.0584799e+00 8.5560490e-03 1.0679767e+00 8.1127534e-03
7.4208564e-03 1.0640542e+00 8.6401390e-03 1.0475112e+00 8.1472258e-03
7.4772887e-03 1.0159203e+00 8.5834399e-03 1.0274590e+00 8.1827368e-03
7.5337210e-03 1.0145624e+00 8.6599312e-03 1.0078076e+00 8.2184954e-03
7.5901533e-03 9.7326970e-01 8.5598429e-03 9.8854457e-01 8.2537141e-03
7.6465857e-03 9.7361353e-01 8.5255693e-03 9.6965784e-01 8.2876532e-03
7.7030180e-03 9.5027666e-01 8.2641572e-03 9.5113586e-01 8.3196600e-03
7.7594503e-03 9.3357461e-01 8.4089893e-03 9.3296774e-01 8.3492022e-03
7.8158826e-03 9.2450502e-01 8.1538042e-03 9.1514321e-01 8.3758910e-03
7.8723149e-03 8.9814947e-01 8.3417086e-03 8.9765257e-01 8.3994954e-03
7.9287473e-03 8.9109116e-01 7.9799921e-03 8.8048712e-01 8.4199455e-03
7.9851796e-03 8.6503069e-01 7.8775819e-03 8.6363872e-01 8.4373266e-03
8.0416119e-03 8.2935358e-01 7.5595875e-03 8.4709986e-01 8.4518651e-03
8.0980442e-03 8.2357816e-01 7.5642417e-03 8.3086412e-01 8.4639072e-03
8.1544765e-03 8.1968825e-01 7.4290980e-03 8.1492535e-01 8.4738930e-03
8.2109089e-03 7.9910950e-01 7.2873007e-03 7.9927862e-01 8.4823270e-03
8.2673412e-03 7.7483060e-01 7.1134579e-03 7.8391920e-01 8.4897489e-03
8.3237735e-03 7.7242519e-01 7.1697473e-03 7.6884296e-01 8.4967041e-03
8.3802058e-03 7.5769326e-01 6.9087716e-03 7.5404610e-01 8.5037182e-03
8.4366381e-03 7.4407560e-01 6.9345986e-03 7.3952548e-01 8.5112741e-03
8.4930704e-03 7.2923221e-01 6.6389218e-03 7.2527841e-01 8.5197957e-03
8.5495027e-03 7.0790707e-01 6.7838503e-03 7.1130209e-01 8.5296358e-03
8.6059350e-03 7.0031235e-01 6.5065574e-03 6.9759391e-01 8.5410698e-03
8.6623673e-03 6.8611832e-01 6.4124030e-03 6.8415162e-01 8.5542956e-03
8.7187996e-03 6.6910484e-01 6.4057027e-03 6.7097274e-01 8.5694367e-03
8.7752319e-03 6.6435157e-01 6.1855660e-03 6.5805482e-01 8.5865497e-03
8.8316642e-03 6.4021380e-01 6.1592282e-03 6.4539543e-01 8.6056345e-03
8.8880965e-03 6.2329137e-01 6.0264679e-03 6.3299176e-01 8.6266454e-03
8.9445288e-03 6.2556089e-01 6.0872809e-03 6.2084128e-01 8.6495031e-03
9.0009611e-03 6.0454438e-01 6.0284375e-03 6.0894080e-01 8.6741058e-03
9.0573934e-03 6.0766311e-01 5.9246489e-03 5.9728695e-01 8.7003394e-03
9.1138257e-03 5.7718924e-01 5.7863667e-03 5.8587656e-01 8.7280862e-03
9.1702580e-03 5.7003157e-01 5.5699437e-03 5.7470568e-01 8.7572304e-03
9.2266903e-03 5.6537129e-01 5.7302727e-03 5.6377048e-01 8.7876636e-03
9.2831226e-03 5.5564850e-01 5.4534460e-03 5.5306681e-01 8.8192864e-03
9.3395549e-03 5.3419127e-01 5.5095152e-03 5.4259034e-01 8.8520094e-03
9.3959872e-03 5.3407726e-01 5.5285060e-03 5.3233650e-01 8.8857528e-03
9.4524195e-03 5.3260729e-01 5.3040816e-03 5.2230047e-01 8.9204449e-03
9.5088518e-03 5.1413301e-01 5.3679971e-03 5.1247739e-01 8.9560202e-03
9.5652841e-03 5.1194530e-01 5.2686386e-03 5.0286223e-01 8.9924173e-03
9.6217164e-03 4.8930653e-01 5.1282970e-03 4.9344988e-01 9.0295769e-03
9.6781486e-03 4.8376413e-01 5.1444510e-03 4.8423505e-01 9.0674407e-03
9.7345809e-03 4.7496261e-01 5.0650395e-03 4.7521246e-01 9.1059502e-03
9.7910132e-03 4.5608225e-01 5.0964572e-03 4.6637715e-01 9.1450467e-03
9.8474455e-03 4.5327870e-01 4.8766592e-03 4.5772357e-01 9.1846718e-03
9.9038778e-03 4.6059496e-01 4.9820413e-03 4.4924688e-01 9.2247681e-03
9.9603101e-03 4.4164657e-01 4.9040724e-03 4.4094173e-01 9.2652812e-03
1.0016742e-02 4.2992502e-01 4.7989186e-03 4.3280330e-01 9.3061611e-03
1.0073175e-02 4.2315058e-01 4.8479497e-03 4.2482670e-01 9.3473655e-03
1.0129607e-02 4.1859648e-01 4.6499905e-03 4.1700717e-01 9.3888582e-03
1.0186039e-02 4.1143841e-01 4.6336632e-03 4.0934019e-01 9.4306151e-03
1.0242471e-02 3.9973710e-01 4.5949516e-03 4.0182128e-01 9.4726232e-03
1.0298904e-02 3.9487001e-01 4.4379184e-03 3.9444661e-01 9.5148825e-03
1.0355336e-02 3.8030027e-01 4.4721763e-03 3.8721180e-01 9.5574034e-03
1.0411768e-02 3.8212743e-01 4.4205128e-03 3.8011326e-01 9.6002113e-03
1.0468201e-02 3.7580212e-01 4.3889247e-03 3.7314741e-01 9.6433431e-03
1.0524633e-02 3.6241608e-01 4.3158413e-03 3.6631087e-01 9.6868441e-03
1.0581065e-02 3.5420265e-01 4.2868444e-03 3.5960042e-01 9.7307708e-03
1.0637497e-02 3.5396910e-01 4.2840962e-03 3.5301330e-01 9.7751854e-03
1.0693930e-02 3.3785184e-01 4.2105880e-03 3.4654640e-01 9.8201556e-03
1.0750362e-02 3.3508365e-01 4.2283831e-03 3.4019742e-01 9.8657484e-03
1.0806794e-02 3.3515714e-01 4.1197862e-03 3.3396393e-01 9.9120330e-03
1.0863226e-02 3.3360921e-01 4.0297844e-03 3.2784362e-01 9.9590749e-03
1.0919659e-02 3.3065887e-01 4.0304716e-03 3.2183454e-01 1.0006935e-02
1.0976091e-02 3.2308303e-01 3.9755802e-03 3.1593468e-01 1.0055666e-02
1.1032523e-02 3.1855565e-01 3.9718404e-03 3.1014230e-01 1.0105314e-02
1.1088955e-02 3.0401084e-01 3.8875404e-03 3.0445581e-01 1.0155913e-02
1.1145388e-02 2.9797956e-01 3.7851379e-03 2.9887364e-01 1.0207491e-02
1.1201820e-02 2.9281014e-01 3.8144109e-03 2.9339416e-01 1.0260060e-02
1.1258252e-02 2.8633395e-01 3.7539544e-03 2.8801616e-01 1.0313626e-02
1.1314684e-02 2.8097357e-01 3.7040175e-03 2.8273836e-01 1.0368181e-02
1.1371117e-02 2.7431547e-01 3.6942703e-03 2.7755939e-01 1.0423713e-02
1.1427549e-02 2.7762471e-01 3.6817976e-03 2.7247799e-01 1.0480196e-02
1.1483981e-02 2.6538551e-01 3.5851838e-03 2.6749310e-01 1.0537599e-02
1.1540413e-02 2.6146306e-01 3.6088554e-03 2.6260354e-01 1.0595888e-02
1.1596846e-02 2.5661255e-01 3.5312397e-03 2.5780817e-01 1.0655023e-02
1.1653278e-02 2.5349979e-01 3.4856455e-03 2.5310584e-01 1.0714959e-02
1.1709710e-02 2.4700593e-01 3.5211396e-03 2.4849539e-01 1.0775654e-02
1.1766142e-02 2.4120992e-01 3.4089195e-03 2.4397564e-01 1.0837066e-02
1.1822575e-02 2.3954573e-01 3.4357970e-03 2.3954542e-01 1.0899153e-02
1.1879007e-02 2.3295286e-01 3.3329909e-03 2.3520350e-01 1.0961876e-02
1.1935439e-02 2.3203759e-01 3.2840015e-03 2.3094869e-01 1.1025202e-02
1.1991871e-02 2.2385405e-01 3.2326488e-03 2.2677983e-01 1.1089102e-02
1.2048303e-02 2.1354370e-01 3.2534844e-03 2.2269549e-01 1.1153553e-02
1.2104736e-02 2.2190576e-01 3.2576946e-03 2.1869447e-01 1.1218538e-02
1.2161168e-02 2.2300810e-01 3.2222907e-03 2.1477533e-01 1.1284043e-02
1.2217600e-02 2.1461233e-01 3.2016516e-03 2.1093676e-01 1.1350066e-02
1.2274032e-02 2.0429500e-01 3.1279940e-03 2.0717739e-01 1.1416608e-02
1.2330465e-02 2.0202126e-01 3.0988696e-03 2.0349576e-01 1.1483677e-02
1.2386897e-02 1.9929572e-01 3.1337286e-03 1.9989043e-01 1.1551284e-02
1.2443329e-02 1.9955119e-01 2.9992829e-03 1.9635978e-01 1.1619447e-02
1.2499761e-02 1.9358553e-01 3.0386983e-03 1.9290238e-01 1.1688189e-02
1.2556193e-02 1.8469660e-01 2.9407317e-03 1.8951678e-01 1.1757536e-02
1.2612626e-02 1.8370333e-01 2.9490693e-03 1.8620138e-01 1.1827516e-02
1.2669058e-02 1.8063864e-01 3.0149878e-03 1.8295466e-01 1.1898158e-02
1.2725490e-02 1.8204935e-01 2.9194913e-03 1.7977491e-01 1.1969493e-02
1.2781922e-02 1.7509110e-01 2.9476284e-03 1.7666071e-01 1.2041552e-02
1.2838355e-02 1.7867686e-01 2.8990479e-03 1.7361058e-01 1.2114367e-02
1.2894787e-02 1.6845211e-01 2.8696035e-03 1.7062278e-01 1.2187962e-02
1.2951219e-02 1.6771756e-01 2.7817157e-03 1.6769584e-01 1.2262366e-02
1.3007651e-02 1.6671622e-01 2.7932964e-03 1.6482821e-01 1.2337600e-02
1.3064083e-02 1.5937182e-01 2.8001766e-03 1.6201837e-01 1.2413683e-02
1.3120516e-02 1.6112724e-01 2.7112216e-03 1.5926481e-01 1.2490632e-02
1.3176948e-02 1.5915244e-01 2.7527622e-03 1.5656607e-01 1.2568452e-02
1.3233380e-02 1.5610240e-01 2.7570718e-03 1.5392064e-01 1.2647150e-02
1.3289812e-02 1.5274958e-01 2.6576013e-03 1.5132708e-01 1.2726727e-02
1.3346244e-02 1.4788434e-01 2.6462675e-03 1.4878399e-01 1.2807177e-02
1.3402676e-02 1.4523493e-01 2.6364663e-03 1.4628990e-01 1.2888491e-02
1.3459109e-02 1.4647764e-01 2.6519883e-03 1.4384366e-01 1.2970657e-02
1.3515541e-02 1.3962521e-01 2.5398977e-03 1.4144388e-01 1.3053655e-02
1.3571973e-02 1.3939581e-01 2.6192157e-03 1.3908924e-01 1.3137466e-02
1.3628405e-02 1.3995498e-01 2.5332107e-03 1.3677864e-01 1.3222067e-02
1.3684837e-02 1.3501438e-01 2.4981480e-03 1.3451075e-01 1.3307435e-02
1.3741270e-02 1.3486131e-01 2.5231897e-03 1.3228450e-01 1.3393546e-02
1.3797702e-02 1.2699801e-01 2.4638694e-03 1.3009870e-01 1.3480376e-02
1.3854134e-02 1.2700964e-01 2.4868663e-03 1.2795236e-01 1.3567904e-02
1.3910566e-02 1.2660544e-01 2.4431952e-03 1.2584441e-01 1.3656111e-02
1.3966998e-02 1.2495778e-01 2.4061802e-03 1.2377391e-01 1.3744983e-02
1.4023430e-02 1.1740260e-01 2.4345958e-03 1.2173989e-01 1.3834511e-02
1.4079863e-02 1.1387819e-01 2.3677553e-03 1.1974144e-01 1.3924693e-02
1.4136295e-02 1.1632692e-01 2.3567818e-03 1.1777770e-01 1.4015530e-02
1.4192727e-02 1.1567094e-01 2.3698273e-03 1.1584788e-01 1.4107035e-02
1.4249159e-02 1.1168461e-01 2.3118234e-03 1.1395113e-01 1.4199229e-02
1.4305591e-02 1.1207871e-01 2.4013070e-03 1.1208668e-01 1.4292140e-02
1.4362023e-02 1.1073120e-01 2.2181080e-03 1.1025392e-01 1.4385808e-02
1.4418456e-02 1.0766156e-01 2.3484982e-03 1.0845216e-01 1.4480281e-02
1.4474888e-02 1.0815645e-01 2.2177347e-03 1.0668077e-01 1.4575612e-02
1.4531320e-02 1.0401192e-01 2.2479683e-03 1.0493909e-01 1.4671871e-02
1.4587752e-02 1.0706994e-01 2.1633359e-03 1.0322656e-01 1.4769130e-02
1.4644184e-02 1.0459443e-01 2.2416584e-03 1.0154263e-01 1.4867473e-02
1.4700616e-02 9.7531236e-02 2.1682116e-03 9.9886835e-02 1.4966988e-02
1.4757049e-02 1.0009225e-01 2.1690392e-03 9.8258593e-02 1.5067770e-02
1.4813481e-02 9.4127749e-02 2.1975938e-03 9.6657581e-02 1.5169917e-02
1.4869913e-02 9.1774903e-02 2.1618807e-03 9.5083211e-02 1.5273531e-02
1.4926345e-02 9.0389903e-02 2.1158803e-03 9.3535134e-02 1.5378714e-02
1.4982777e-02 9.1097805e-02 2.0799445e-03 9.2012897e-02 1.5485571e-02
1.5039209e-02 9.0820824e-02 2.0933012e-03 9.0516132e-02 1.5594203e-02
1.5095641e-02 8.7615181e-02 2.1137342e-03 8.9044462e-02 1.5704705e-02
1.5152074e-02 8.8643786e-02 2.0693913e-03 8.7597529e-02 1.5817173e-02
1.5208506e-02 8.7838360e-02 2.0118303e-03 8.6175098e-02 1.5931686e-02
1.5264938e-02 8.7674707e-02 2.0945622e-03 8.4776777e-02 1.6048323e-02
1.5321370e-02 8.4711734e-02 2.0163024e-03 8.3402287e-02 1.6167150e-02
1.5377802e-02 7.9783892e-02 2.0595285e-03 8.2051305e-02 1.6288219e-02
1.5434234e-02 8.4174487e-02 1.9467229e-03 8.0723534e-02 1.6411574e-02
1.5490666e-02 7.6709321e-02 1.9985360e-03 7.9418711e-02 1.6537240e-02
1.5547098e-02 8.1859583e-02 2.0253132e-03 7.8136453e-02 1.6665232e-02
1.5603531e-02 7.5933244e-02 1.9550087e-03 7.6876609e-02 1.6795549e-02
1.5659963e-02 7.6045816e-02 1.9790149e-03 7.5638798e-02 1.6928169e-02
1.5716395e-02 7.5420559e-02 1.8756913e-03 7.4422882e-02 1.7063063e-02
1.5772827e-02 7.2852062e-02 1.9506640e-03 7.3228530e-02 1.7200182e-02
1.5829259e-02 7.2290222e-02 1.8974226e-03 7.2055479e-02 1.7339463e-02
1.5885691e-02 6.7494515e-02 1.9450336e-03 7.0903427e-02 1.7480831e-02
1.5942123e-02 7.4112177e-02 1.8646379e-03 6.9772172e-02 1.7624195e-02
1.5998555e-02 6.7078842e-02 1.8770396e-03 6.8661449e-02 1.7769453e-02
1.6054987e-02 6.6959495e-02 1.9156338e-03 6.7570985e-02 1.7916494e-02
1.6111420e-02 6.7168117e-02 1.9067397e-03 6.6500462e-02 1.8065198e-02
1.6167852e-02 6.6064755e-02 1.8744251e-03 6.5449615e-02 1.8215430e-02
1.6224284e-02 6.3394117e-02 1.8804905e-03 6.4418266e-02 1.8367059e-02
1.6280716e-02 6.8429388e-02 1.8191178e-03 6.3406077e-02 1.8519945e-02
1.6337148e-02 5.9174122e-02 1.8255406e-03 6.2412804e-02 1.8673945e-02
1.6393580e-02 6.1507954e-02 1.8364314e-03 6.1438150e-02 1.8828918e-02
1.6450012e-02 6.2096966e-02 1.8307754e-03 6.0481784e-02 1.8984722e-02
1.6506444e-02 5.8674866e-02 1.8055338e-03 5.9543526e-02 1.9141219e-02
1.6562876e-02 5.9290883e-02 1.8066193e-03 5.8622972e-02 1.9298274e-02
1.6619308e-02 5.6540645e-02 1.7639360e-03 5.7719869e-02 1.9455760e-02
1.6675740e-02 5.5753806e-02 1.7842563e-03 5.6833910e-02 1.9613557e-02
1.6732173e-02 5.7317802e-02 1.7276302e-03 5.5964856e-02 1.9771558e-02
1.6788605e-02 5.6669001e-02 1.7203509e-03 5.5112371e-02 1.9929655e-02
1.6845037e-02 5.2486165e-02 1.7792015e-03 5.4276144e-02 2.0087763e-02
1.6901469e-02 5.2697346e-02 1.7129108e-03 5.3455909e-02 2.0245805e-02
1.6957901e-02 5.4652762e-02 1.7243717e-03 5.2651320e-02 2.0403717e-02
1.7014333e-02 5.2235879e-02 1.7412129e-03 5.1862042e-02 2.0561448e-02
1.7070765e-02 4.8478604e-02 1.6848690e-03 5.1087879e-02 2.0718963e-02
1.7127197e-02 4.8733800e-02 1.7289043e-03 5.0328437e-02 2.0876239e-02
1.7183629e-02 4.8873331e-02 1.7228707e-03 4.9583391e-02 2.1033270e-02
1.7240061e-02 4.7710849e-02 1.6973543e-03 4.8852516e-02 2.1190061e-02
1.7296493e-02 4.7929659e-02 1.6996615e-03 4.8135477e-02 2.1346633e-02
1.7352925e-02 4.6826127e-02 1.6557093e-03 4.7431883e-02 2.1503020e-02
1.7409357e-02 4.5245393e-02 1.6328428e-03 4.6741552e-02 2.1659270e-02
1.7465789e-02 4.4504925e-02 1.6222068e-03 4.6064085e-02 2.1815441e-02
1.7522221e-02 4.2385283e-02 1.6616341e-03 4.5399237e-02 2.1971603e-02
1.7578654e-02 4.2109263e-02 1.6544441e-03 4.4746681e-02 2.2127841e-02
1.7635086e-02 4.3735546e-02 1.6565787e-03 4.4106081e-02 2.2284239e-02
1.7691518e-02 4.1128453e-02 1.5945637e-03 4.3477264e-02 2.2440899e-02
